Timestamp,PM2.5 (µg/m³),PM10 (µg/m³),NO (µg/m³),NO2 (µg/m³),NOx (ppb),NH3 (µg/m³),SO2 (µg/m³),CO (mg/m³),Ozone (µg/m³),Benzene (µg/m³),Toluene (µg/m³),Xylene (µg/m³),O Xylene (µg/m³),Eth-Benzene (µg/m³),MP-Xylene (µg/m³),AT (°C),RH (%),WS (m/s),WD (deg),RF (mm),TOT-RF (mm),SR (W/mt2),BP (mmHg),VWS (m/s)
2023-01-01,13.699965277777778,40.948125,17.677256944444444,2.2835069444444445,15.53138888888889,6.489027777777778,9.496770833333334,0.2795138888888889,13.750902777777776,,,,,,,27.727604166666666,55.31916666666667,0.8109027777777778,252.53878472222223,,0.0,0.0,1013.3052083333333,
2023-01-02,20.9496875,47.829375,13.192604166666667,3.6606597222222224,12.666423611111112,7.158680555555556,9.483784722222223,0.17072916666666668,13.605555555555556,,,,,,,27.183854166666666,54.24381944444445,0.813576388888889,252.64618055555556,,0.0,0.0,1013.2295486111111,
2023-01-03,25.48409090909091,58.40562499999999,14.9975,5.045833333333333,14.8771875,7.711458333333333,9.416736111111112,0.24274305555555556,13.68107638888889,,,,,,,27.0703125,54.01440972222222,0.9083333333333333,244.15291666666667,,0.0,0.0,1013.1253125,
2023-01-04,29.88328125,77.85645833333334,11.040902777777779,5.2231250000000005,11.754826388888889,8.853993055555556,9.350624999999999,0.2479861111111111,13.628298611111111,,,,,,,27.009618055555553,53.89767361111111,0.9377430555555556,239.48749999999998,,0.0,0.0,1012.0912152777778,
2023-01-05,24.392395833333335,59.50604166666667,9.008263888888889,4.827569444444444,9.892430555555555,8.148020833333334,9.464131944444444,0.2582638888888889,13.75079861111111,,,,,,,27.363194444444446,54.60649305555555,0.9470138888888889,234.734375,,0.0,0.0,1012.0197222222223,
2023-01-06,24.28979166666667,69.45208333333333,10.268993055555555,4.441736111111111,10.712118055555555,7.4558333333333335,9.3634375,0.1679166666666667,13.724618055555554,,,,,,,27.146597222222223,54.16840277777778,1.0829513888888889,240.85923611111113,,0.0,0.0,1012.8192361111111,
2023-01-07,25.43590277777778,63.10927083333333,9.579236111111111,5.084548611111111,10.491111111111111,7.467569444444444,9.280868055555556,0.17100694444444442,13.798506944444446,,,,,,,27.444895833333334,54.76510416666667,1.0111458333333332,241.6659375,,0.0,0.0,1012.4933333333333,
2023-01-08,61.496944444444445,93.56083333333333,10.450381944444445,4.893611111111111,11.098472222222222,8.377152777777779,9.435868055555556,0.17812499999999998,13.795833333333334,,,,,,,27.02829861111111,53.931215277777774,0.9473958333333333,234.17777777777778,,0.0,0.0,1012.0652777777777,
2023-01-09,47.074131944444446,76.53944444444444,6.710625,6.864166666666667,9.107916666666666,8.261145833333334,9.377395833333333,0.20965277777777777,13.816805555555556,,,,,,,26.657083333333333,53.1875,0.9057291666666667,216.26854166666666,,0.0,0.0,1013.1213541666666,
2023-01-10,29.29201388888889,61.2434375,9.9028125,5.545625,11.002777777777778,7.236006944444444,9.4128125,0.16295138888888885,13.77454861111111,,,,,,,25.58010416666667,51.03208333333333,0.8792708333333333,234.56687499999998,,0.0,0.0,1012.9320138888888,
2023-01-11,32.47954861111111,70.67246527777777,12.896354166666667,6.147256944444444,13.754270833333335,7.589409722222222,9.465347222222222,0.1604861111111111,13.690590277777778,,,,,,,25.756805555555555,51.39385416666667,0.8584027777777777,248.68159722222222,,0.0,0.0,1011.2852083333333,
2023-01-12,13.76981884057971,68.76208333333334,12.684513888888889,6.095381944444444,13.55298611111111,7.528506944444445,9.478819444444445,0.1642361111111111,13.543923611111111,,,,,,,25.625069444444446,51.13010416666666,0.7353472222222223,255.38083333333336,,0.0,0.0,1010.495,
2023-01-13,12.1175,53.42958333333333,15.84361111111111,5.229583333333333,15.661701388888888,6.9203125000000005,9.47375,0.12868055555555555,13.587708333333333,,,,,,,25.68375,51.24281250000001,0.7666666666666666,256.14177083333334,,0.0,0.0,1010.7226041666667,
2023-01-14,10.105227272727273,35.55275,16.60420138888889,4.536319444444445,15.911458333333334,6.849895833333334,9.501388888888888,0.18350694444444446,13.66486111111111,,,,,,,25.459374999999998,50.79826388888889,0.8189236111111112,250.25288194444445,,0.0,0.0,1010.5947222222222,
2023-01-15,7.664,,18.64611111111111,3.3113541666666664,16.90138888888889,6.901388888888889,9.629097222222223,0.16371527777777778,13.582152777777779,,,,,,,25.72267361111111,51.319583333333334,0.7921874999999999,255.45239583333333,,0.0,0.0,1010.0003125,
2023-01-16,8.501785714285713,34.755227272727275,14.359340277777777,3.6957291666666667,13.637291666666668,7.140451388888889,9.51548611111111,0.14180555555555555,13.56670138888889,,,,,,,26.24940972222222,52.37097222222223,0.754375,241.15003472222222,,0.0,0.0,1010.4815625,
2023-01-17,6.903611111111111,35.595104166666665,14.070833333333333,2.9999305555555558,13.021145833333334,6.437847222222222,9.4325,0.18666666666666665,13.641388888888889,,,,,,,25.846666666666668,51.57,0.7830902777777777,235.62677083333335,,0.0,0.0,1011.2828472222222,
2023-01-18,19.210416666666667,52.5765625,13.123715277777777,4.232986111111111,12.919791666666667,7.360381944444445,9.3278125,0.14302083333333332,13.639270833333333,,,,,,,25.53708333333333,50.94361111111112,0.9126041666666667,219.9390277777778,,0.0,0.0,1012.4253125,
2023-01-19,23.141041666666666,61.05916666666667,13.210034722222224,4.656666666666667,13.216493055555555,7.468229166666667,9.39861111111111,0.09788194444444444,13.594965277777776,,,,,,,25.5178125,50.914479166666666,0.9229166666666666,230.671875,,0.0,0.0,1012.4117708333333,
2023-01-20,34.58083333333334,72.34760416666667,12.512604166666668,4.920798611111111,12.78625,7.9941666666666675,9.473159722222222,0.1312847222222222,13.688194444444443,,,,,,,25.641006944444445,51.155798611111116,0.9698958333333333,235.571875,,0.0,0.0,1011.7370833333333,
2023-01-21,45.39980158730159,79.19489583333333,12.261388888888888,5.3587847222222225,12.81920138888889,8.402083333333334,9.5140625,0.12149305555555555,13.662118055555554,,,,,,,25.818541666666665,51.5075,0.9467708333333333,200.15541666666664,,0.0,0.0,1010.625138888889,
2023-01-22,25.4,75.67583333333333,9.129444444444445,5.419930555555555,10.3065625,8.162534722222222,9.702777777777778,0.11045138888888888,13.5621875,,,,,,,26.39784722222222,52.66673611111111,0.9602430555555556,221.0276041666667,,0.0,0.0,1010.0359722222223,
2023-01-23,3.2740625000000003,57.602013888888884,12.519027777777778,4.882569444444445,12.77513888888889,7.637048611111111,9.884583333333333,0.15104166666666666,13.710729166666667,,,,,,,25.545625,50.96982638888889,0.9195138888888889,261.21503472222224,,0.0,0.0,1009.1453819444445,
2023-01-24,12.67825,30.137065217391307,14.356701388888888,4.214895833333333,13.89611111111111,7.016493055555556,9.828125,0.13336805555555556,13.764861111111111,,,,,,,26.486041666666665,52.845416666666665,0.9202083333333334,234.84343750000002,,0.0,0.0,1009.6513541666667,
2023-01-25,29.260416666666668,56.56947916666667,12.476631944444444,4.794513888888889,12.68982638888889,7.239166666666667,9.792222222222222,0.4444444444444444,13.566284722222221,,,,,,,26.057534722222226,51.99010416666667,0.8524652777777778,232.41673611111113,,0.0,0.0,1009.924375,
2023-01-26,63.2094696969697,87.46728260869565,12.35815972222222,5.292361111111111,12.861006944444446,8.066875,9.791215277777779,0.11624999999999998,13.741493055555557,,,,,,,26.153229166666666,52.182812500000004,0.8733333333333334,236.29954861111113,,0.0,0.0,1009.7133680555556,
2023-01-27,45.49229166666667,71.42715277777778,12.970416666666667,5.636666666666667,13.541875,7.611979166666667,9.684618055555555,0.23520833333333332,13.696076388888889,,,,,,,26.347291666666667,52.57256944444444,0.8493749999999999,239.2107638888889,,0.0,0.0,1009.7128819444443,
2023-01-28,26.900000000000002,51.583124999999995,12.986111111111112,5.3284722222222225,13.391458333333333,6.980798611111111,9.7615625,0.2589236111111111,13.607986111111112,,,,,,,25.922187500000003,51.717395833333335,0.9577430555555555,243.47197916666667,,0.0,0.0,1008.9239236111111,
2023-01-29,52.29447916666666,,12.217118055555554,4.924270833333334,12.551805555555555,8.122916666666667,9.945902777777777,0.16982638888888887,13.626666666666667,,,,,,,25.916666666666668,51.707118055555554,1.0235069444444445,243.1745138888889,,0.0,0.0,1007.7147569444445,
2023-01-30,34.077083333333334,55.834999999999994,13.393749999999999,5.186770833333333,13.648506944444444,7.810972222222222,9.91625,0.308125,13.585416666666667,,,,,,,26.310729166666665,52.49809027777778,0.9844444444444443,274.26229166666667,,0.0,0.0,1008.5201388888889,
2023-01-31,28.675104166666667,61.02583333333333,13.655833333333334,5.286284722222223,13.913958333333333,8.272326388888889,9.633680555555555,0.32579861111111114,13.577118055555557,,,,,,,26.913993055555554,53.702152777777776,1.1085763888888889,249.4009722222222,,0.0,0.0,1008.0116666666667,
2023-02-01,21.758804347826086,57.89875,11.491111111111111,5.902638888888888,12.483854166666667,8.116979166666667,9.664305555555556,0.19732638888888887,13.578958333333333,,,,,,,27.13965277777778,54.15371527777777,1.0737152777777779,233.72034722222224,,0.0,0.0,1007.3446875,
2023-02-02,7.488461538461538,14.817569444444445,16.965347222222224,3.511041666666667,15.660590277777779,7.3290625,9.5740625,0.15493055555555554,13.614201388888889,,,,,,,24.046041666666667,47.96458333333334,1.1878125,267.9626388888889,,0.0,0.0,1008.0219791666667,
2023-02-03,14.13642857142857,34.28135416666667,16.34510416666667,3.997152777777778,15.4134375,7.299479166666667,9.842569444444445,0.24760416666666665,13.748958333333334,,,,,,,26.230138888888888,52.33569444444444,1.010138888888889,231.70489583333332,,0.0,0.0,1008.6888541666667,
2023-02-04,9.207777777777778,40.95875,14.52173611111111,4.584131944444445,14.245937499999998,7.540729166666666,9.670486111111112,0.3436458333333334,13.772395833333334,,,,,,,25.867118055555554,51.615347222222226,0.8564236111111111,248.48243055555554,,0.0,0.0,1008.8275,
2023-02-05,11.266875,50.102916666666665,12.710208333333334,4.6779166666666665,12.823125,7.335,9.852916666666667,2.2204166666666665,13.599340277777777,,,,,,,26.284895833333334,52.443645833333335,0.9669791666666666,246.77614583333332,,0.0,0.0,1008.7572916666667,
2023-02-06,3.9146428571428573,51.352916666666665,14.867638888888889,5.022013888888889,14.760590277777778,7.274965277777778,9.781979166666668,0.711875,13.583194444444445,,,,,,,25.775868055555552,51.42899305555556,0.7698611111111111,255.35208333333333,,0.0,0.0,1009.4455208333334,
2023-02-07,,48.23489583333333,19.097152777777776,4.452256944444445,17.894444444444446,7.339722222222222,9.726215277777778,0.1265625,13.666215277777779,,,,,,,26.110937500000002,52.10190972222222,0.9108333333333333,253.48697916666666,,0.0,0.0,1009.1981597222222,
2023-02-08,4.0,32.18253623188406,23.981736111111115,4.197708333333334,21.714270833333334,7.9139236111111115,9.54920138888889,0.11795138888888888,13.796840277777777,,,,,,,26.460069444444443,52.799375,0.8911805555555555,252.15621527777776,,0.0,0.0,1009.1151388888889,
2023-02-09,9.024166666666668,32.92809027777778,24.910104166666667,3.9906884057971013,22.23465277777778,9.07420138888889,9.493159722222222,0.1237847222222222,13.663402777777778,,,,,,,26.89090277777778,53.648229166666674,0.8653472222222223,266.04631944444446,,0.0,0.0,1009.8715625,
2023-02-10,10.114347826086956,40.480312500000004,25.877847222222226,3.6248958333333334,22.93309027777778,9.472118055555555,9.301666666666668,0.1325347222222222,13.560104166666667,,,,,,,26.400590277777777,52.6753125,0.8481944444444444,253.5642013888889,,0.0,0.0,1010.8344097222222,
2023-02-11,32.672847222222224,86.76763888888888,22.536875,5.358263888888889,21.142465277777777,9.916319444444445,9.419236111111111,0.16100694444444444,13.665659722222223,,,,,,,25.982743055555556,51.837986111111114,0.8682291666666666,245.3898263888889,,0.0,0.0,1011.1259722222222,
2023-02-12,44.7156884057971,98.64771739130435,19.451477272727274,5.131521739130435,17.792717391304347,12.019782608695651,9.486231884057972,0.1776388888888889,13.60888888888889,,,,,,,26.10108695652174,52.072463768115945,0.9334420289855072,252.13253623188405,,0.0,0.0,1011.2620289855072,
2023-02-13,34.29145833333333,85.21802083333334,19.930243055555554,5.230381944444445,18.97854166666667,11.763715277777777,9.520972222222222,0.16177083333333334,13.723680555555555,,,,,,,25.879305555555558,51.633263888888884,1.0409027777777777,253.71677083333336,,0.0,0.0,1011.47125,
2023-02-14,18.706666666666667,67.44833333333334,17.375104166666667,3.5867753623188405,15.908229166666667,8.003715277777777,9.556284722222221,0.18708333333333335,13.698506944444444,,,,,,,26.170208333333335,52.213888888888896,0.9891666666666666,246.65881944444445,,0.0,0.0,1011.5217361111112,
2023-02-15,29.267187500000002,79.94135416666667,10.985277777777776,3.951098484848485,10.812048611111111,6.366076388888889,9.567013888888889,0.23329861111111108,13.637465277777778,,,,,,,25.518819444444446,50.91288194444444,0.8963541666666667,236.6605902777778,,0.0,0.0,1009.7538194444445,
2023-02-16,34.20673611111111,84.16010416666667,8.3696875,1.9853985507246377,7.7898958333333335,5.4042708333333325,9.702673611111111,0.22197916666666664,13.672743055555555,,,,,,,25.848958333333332,51.56947916666667,0.9691666666666666,258.561875,,0.0,0.0,1010.0270833333334,
2023-02-17,31.2445,75.601125,9.204208333333334,1.4150416666666668,8.207208333333334,5.346875,9.698041666666667,0.2502083333333333,13.75025,,,,,,,26.697125,53.267624999999995,0.9306666666666666,230.42199999999997,,0.0,0.0,1010.5795416666666,
2023-02-18,14.515192307692306,63.62576923076923,8.373076923076923,2.0696153846153846,7.9090384615384615,5.557115384615385,9.663333333333334,0.27557692307692305,13.578269230769232,,,,,,,29.32461538461538,58.50903846153846,0.931923076923077,184.4798076923077,,0.0,0.0,1010.2,
2023-02-19,12.863854166666668,45.95229166666667,11.9134375,0.6181944444444444,9.99420138888889,5.0394097222222225,9.416666666666666,0.23496527777777776,13.63701388888889,,,,,,,27.803541666666664,55.466701388888886,0.9626736111111112,230.21958333333336,,0.0,0.0,1010.747048611111,
2023-02-20,11.056041666666667,44.690416666666664,16.728125000000002,3.362007575757576,15.209166666666667,5.799062500000001,9.361006944444444,0.19645833333333332,13.597222222222221,,,,,,,27.616041666666664,55.10760416666667,1.0184722222222222,204.5255902777778,,0.0,0.0,1010.8489583333334,
2023-02-21,9.432604166666666,51.42104166666667,12.425243055555555,1.7379166666666666,10.679756944444444,5.38625,9.440902777777778,0.2075,13.5615625,,,,,,,27.217222222222222,54.30767361111111,1.018888888888889,196.65461805555557,,0.0,0.0,1011.1321180555556,
2023-02-22,18.10388888888889,85.94144927536232,11.784791666666665,1.9527777777777777,10.264791666666666,5.607083333333333,9.491666666666667,0.23996527777777776,13.592604166666668,,,,,,,26.6684375,53.210138888888885,1.0005555555555554,189.52069444444444,,0.0,0.0,1010.5901041666666,
2023-02-23,20.0021875,67.14666666666666,11.016666666666666,1.205873015873016,9.44517361111111,5.397083333333334,9.542361111111111,0.10333333333333333,13.592847222222224,,,,,,,26.803749999999997,53.47506944444444,0.9590625,218.08350694444445,,0.0,0.0,1010.5564236111112,
2023-02-24,10.7021875,52.12395833333333,12.131180555555554,1.0279583333333333,10.217326388888889,5.227256944444444,9.487222222222222,0.08513888888888888,13.693993055555557,,,,,,,27.543159722222224,54.95986111111111,0.9737847222222222,207.24625,,0.0,0.0,1011.0836111111112,
2023-02-25,8.865507246376811,34.152101449275364,12.2184375,1.1553240740740742,10.2984375,5.461354166666666,9.286319444444445,0.09927083333333332,13.685694444444444,,,,,,,27.322708333333335,54.50989583333333,0.9354166666666667,192.22406250000003,,0.0,0.0,1012.4348958333334,
2023-02-26,13.898333333333335,42.71270833333333,9.877118055555556,1.3684649122807018,8.511006944444444,5.309444444444444,9.317118055555556,0.10788194444444443,13.648645833333333,,,,,,,26.34934027777778,52.57916666666667,1.073576388888889,182.5522222222222,,0.0,0.0,1013.5352083333333,
2023-02-27,23.698645833333334,53.24677083333333,9.341770833333333,1.87525,8.330069444444444,5.371875,9.440972222222223,0.136875,13.680138888888889,,,,,,,27.031423611111112,53.92572916666666,1.1314930555555556,212.6473611111111,,0.0,0.0,1013.6697222222223,
2023-02-28,22.512395833333333,39.65819444444444,8.627604166666666,1.742651515151515,7.834722222222222,5.417951388888889,9.314791666666666,0.16722222222222224,13.8146875,,,,,,,26.894201388888888,53.661006944444445,1.1798958333333334,222.13354166666667,,0.0,0.0,1013.0116666666667,
2023-03-01,27.83128472222222,45.328611111111115,7.7124999999999995,2.01625,7.341458333333333,5.4965625,9.315034722222222,0.28024305555555556,13.615694444444443,0.0,,,,,,27.45534722222222,54.78805555555556,1.0545833333333332,173.2345486111111,,0.0,0.0,1012.9418055555556,
2023-03-02,30.93590277777778,58.33506944444445,6.776458333333333,2.236304347826087,6.636006944444445,5.327777777777778,9.382222222222222,0.22746527777777778,13.5325,,,,,,,27.494618055555552,54.862986111111105,1.013576388888889,202.47968749999998,,0.0,0.0,1013.6478125,
2023-03-03,30.788993055555554,59.04277777777778,7.771666666666667,2.143804347826087,7.3778125,5.388680555555555,9.331979166666667,0.2696527777777778,13.590277777777779,0.0,,,,,,26.552534722222223,52.98111111111111,1.1215625,222.58152777777778,,0.0,0.0,1014.2180902777777,
2023-03-04,30.34355072463768,60.05514492753623,8.469166666666666,2.1886363636363635,7.912291666666667,5.623680555555556,9.377986111111111,0.19315972222222222,13.612256944444445,,,,,,,27.362256944444443,54.60513888888889,1.1257986111111111,211.51725694444443,,0.0,0.0,1013.8873611111111,
2023-03-05,27.443819444444443,41.1745,9.382107843137256,1.7881770833333333,8.513823529411766,5.292794117647059,9.201979166666666,0.12029411764705879,13.789953703703704,,,,,,,29.04264705882353,57.960196078431366,1.0338725490196077,196.76539215686276,,0.0,0.0,1013.3775980392156,
2023-03-06,27.898125000000004,72.63607142857143,9.695868055555556,1.9806746031746032,8.749895833333333,5.756423611111111,9.455,0.14312499999999997,13.829479166666667,,,,,,,27.475729166666667,54.82760416666667,0.9709027777777778,219.21402777777777,,0.0,0.0,1012.0682638888889,
2023-03-07,28.494456521739128,43.680942028985505,9.525,1.6753409090909093,8.521458333333333,6.297916666666667,9.296145833333332,0.19989583333333336,13.70375,,,,,,,27.7715625,55.415625,0.9736458333333333,213.7153125,,0.0,0.0,1011.3027083333333,
2023-03-08,31.06543650793651,59.602539682539685,11.332048611111112,2.9282986111111113,10.765729166666667,8.534374999999999,9.168993055555555,0.20173611111111112,13.734826388888889,,,,,,,28.005,55.8928125,1.2517361111111112,208.97118055555555,,0.0,0.0,1011.1359722222222,
2023-03-09,28.850601851851852,68.09107142857142,12.321583333333333,1.9032222222222221,10.658458333333332,8.027416666666667,26.653020833333333,0.2844583333333333,13.805875,,,,,,,27.24095833333333,54.35941666666666,1.0827916666666666,232.80095833333334,,0.0,0.0,1010.4620416666667,
2023-03-10,28.252013888888886,65.7234375,11.984375,1.599702380952381,9.600868055555555,7.278611111111111,9.076145833333333,0.24715277777777778,13.6096875,,,,,,,27.474305555555556,54.82131944444444,1.0279166666666666,214.23895833333333,,0.0,0.0,1010.2442361111111,
2023-03-11,28.876006944444445,58.18520833333333,11.276041666666666,1.2542647058823528,9.428576388888889,7.716111111111111,10.185,0.2670486111111111,13.774097222222222,,,,,,,27.91920138888889,55.712604166666665,1.1164583333333333,218.97708333333333,,0.0,0.0,1010.2128472222222,
2023-03-12,27.136944444444445,46.61579365079365,11.338715277777778,1.0204411764705883,9.422083333333333,10.613645833333333,10.350104166666666,0.2632638888888889,13.770625,,,,,,,27.78565972222222,55.44309027777778,1.1632291666666668,213.9026736111111,,0.0,0.0,1009.9841666666666,
2023-03-13,35.55674242424242,66.46712121212121,11.67326388888889,1.9081578947368423,10.158784722222222,9.517013888888888,10.335520833333334,0.21777777777777776,13.836145833333333,,,,,,,28.230902777777775,56.330000000000005,1.0802083333333334,230.46079861111113,,0.0,0.0,1009.0782986111111,
2023-03-14,34.621180555555554,61.596805555555555,20.01045138888889,2.851127450980392,17.122916666666665,12.542812499999998,9.987465277777778,0.2509375,13.832430555555556,,,,,,,28.267777777777777,56.387569444444445,0.9936111111111111,232.7240972222222,,0.0,0.0,1007.7898263888889,
2023-03-15,33.911006944444445,62.78138888888889,6.061805555555556,1.6896666666666669,4.922743055555555,5.7860763888888895,11.15736111111111,0.26368055555555553,13.72517361111111,,,,,,,29.155798611111113,58.15163194444444,1.0172222222222222,235.91326388888888,,0.0,0.0,1007.3773611111111,
2023-03-16,13.441006944444444,42.712604166666665,8.546909722222223,1.7599999999999998,6.958402777777778,5.662118055555555,11.519166666666665,0.2489583333333333,13.608923611111111,,,,,,,30.136666666666667,60.11708333333333,1.0364583333333333,196.96027777777775,,0.0,0.0,1008.1742708333333,
2023-03-17,11.04391304347826,52.16729166666667,15.358055555555557,0.2896296296296296,12.21482638888889,7.475451388888889,10.338020833333333,0.2928125,13.785520833333335,,,,,,,30.13513888888889,60.1134375,1.1210069444444444,181.61725694444445,,0.0,0.0,1008.2690625,
2023-03-18,8.429007936507936,38.38464285714286,13.213576388888889,1.3185,10.332118055555556,7.108055555555556,9.944236111111111,0.21225694444444443,13.6696875,,,,,,,30.29111111111111,60.41298611111111,1.0453819444444445,220.50010416666666,,0.0,0.0,1007.9093750000001,
2023-03-19,6.073295454545455,15.272777777777778,6.010729166666667,,4.036597222222222,4.470625,11.601458333333333,0.17756944444444445,13.642986111111112,,,,,,,30.089479166666667,60.02232638888889,1.8352430555555557,240.40461805555557,,0.0,0.0,1006.7783680555555,
2023-03-20,7.221401515151515,14.493,4.867708333333334,0.42333333333333334,3.4014236111111114,3.933194444444444,11.783854166666666,0.2109375,13.639131944444443,,,,,,,27.57614583333333,55.0178125,1.0988541666666667,232.59927083333332,,0.0,0.0,1006.7159027777778,
2023-03-21,10.01265873015873,21.44156862745098,4.524444444444445,0.7098333333333333,3.24875,3.7696875,11.910416666666668,0.24427083333333333,13.381180555555554,,,,,,,29.321770833333332,58.487291666666664,1.1815625,235.5288888888889,,0.0,0.0,1006.3438194444444,
2023-03-22,10.739090909090908,24.080745614035088,4.330902777777777,0.6928333333333334,3.235173611111111,3.8255208333333335,11.797916666666666,0.23663194444444444,13.295104166666667,,,,,,,30.620520833333334,61.07020833333333,1.3207291666666667,240.16197916666667,,0.0,0.0,1006.8552083333334,
2023-03-23,12.895173611111112,27.702986111111112,3.5734375000000003,0.8617708333333334,2.8101041666666666,3.945,11.660034722222221,0.28652777777777777,13.64875,,,,,,,30.371631944444445,60.57670138888889,1.3161458333333333,233.9107638888889,,0.0,0.0,1007.3203819444444,
2023-03-24,8.725394736842105,16.516666666666666,4.3093055555555555,0.5754166666666667,3.1097222222222225,3.9304166666666664,11.297847222222222,0.32211805555555556,13.451006944444444,,,,,,,30.134131944444444,60.102291666666666,1.4644444444444444,235.16100694444447,,0.0,0.0,1007.6593055555555,
2023-03-25,6.425729166666667,19.98565972222222,4.3409375,0.6639999999999999,3.1785763888888887,4.075486111111111,11.178611111111111,0.2872222222222222,13.783854166666666,,,,,,,30.296666666666667,60.42864583333333,1.2744791666666666,233.42864583333335,,0.0,0.0,1008.6394791666667,
2023-03-26,8.005357142857143,17.471507936507937,5.4409375,,3.7569444444444446,3.8545833333333337,11.284027777777778,0.2703125,13.838784722222222,,,,,,,30.043645833333333,59.928888888888885,1.504201388888889,245.63576388888887,,0.0,0.0,1008.1190972222222,
2023-03-27,11.306041666666665,36.549375,4.680104166666667,0.4238888888888889,3.4433333333333334,3.8995486111111113,11.358541666666667,0.3739930555555555,13.709479166666666,,,,,,,31.147534722222222,62.12611111111111,1.1129166666666668,238.80868055555558,,0.0,0.0,1007.1261805555555,
2023-03-28,18.59208333333333,47.821979166666665,4.369097222222222,0.6291666666666667,3.299791666666667,4.031527777777778,11.112083333333333,0.3180555555555556,13.818159722222221,,,,,,,31.36145833333333,62.5459375,1.0878125,230.0534375,,0.0,0.0,1007.4325,
2023-03-29,24.675,59.14208333333334,4.753125,1.8441666666666667,3.875833333333333,4.209548611111111,10.901874999999999,0.33993055555555557,13.649548611111113,,,,,,,30.109305555555554,60.05795138888889,1.123923611111111,229.09548611111111,,0.0,0.0,1008.4294444444445,
2023-03-30,21.998840579710144,57.59945652173913,5.0484374999999995,1.02,3.7681597222222223,4.168368055555556,11.07659722222222,0.30083333333333334,13.579583333333334,,,,,,,30.19548611111111,60.22267361111111,1.137951388888889,243.4164236111111,,0.0,0.0,1007.9384722222222,
2023-03-31,25.029305555555556,55.11555555555555,4.519236111111112,0.7823611111111112,3.3153124999999997,4.077604166666666,11.338645833333333,0.24322916666666664,13.436423611111111,,,,,,,31.176597222222224,62.173750000000005,1.2206249999999998,247.67454861111113,,0.0,0.0,1006.8713194444445,
2023-04-01,19.963297101449278,44.06206521739131,4.230138888888889,0.8355555555555556,3.2073611111111107,4.151770833333333,11.054097222222223,0.24718749999999998,13.658229166666667,,,,,,,31.068020833333335,61.96527777777778,1.3794791666666668,236.03302083333332,,0.0,0.0,1007.3047569444444,
2023-04-02,15.987152777777778,33.874375,4.348263888888889,0.04,3.0326388888888887,3.8243055555555556,10.773020833333334,0.18295138888888887,13.036631944444444,,,,,,,31.19079861111111,62.209409722222226,1.278923611111111,231.17475694444443,,0.0,0.0,1006.9680902777777,
2023-04-03,8.698152173913044,20.95969298245614,3.1868055555555554,0.48316666666666663,2.1953819444444442,3.638888888888889,11.301319444444445,0.29465277777777776,13.371180555555556,,,,,,,31.209166666666665,62.23822916666666,1.3922569444444444,228.78364583333334,,0.0,0.0,1006.8223611111111,
2023-04-04,6.951628787878788,28.390789473684208,3.363055555555556,,2.248888888888889,3.5059722222222223,11.18017361111111,0.31481481481481477,13.503070175438596,,,,,,,31.43708333333333,62.69597222222222,1.46125,222.19958333333332,,0.0,0.0,1008.4447222222223,
2023-04-05,5.0,14.737051282051281,3.835347222222222,,2.5018402777777777,3.447569444444445,11.155416666666667,0.32895833333333335,13.218645833333333,,,,,,,29.705868055555555,59.24791666666667,1.3613888888888888,245.55847222222224,,0.0,0.0,1007.6722916666666,
2023-04-06,,13.964561403508771,4.664409722222222,0.5242857142857142,3.437673611111111,3.5547916666666666,11.105138888888888,0.3530902777777778,13.5175,,,,,,,30.6575,61.1496875,1.4501736111111112,244.79399305555555,,0.0,0.0,1007.9237499999999,
2023-04-07,5.390641025641026,33.954,5.691215277777778,,4.135173611111111,3.539722222222222,10.94579861111111,0.34979166666666667,13.841111111111111,,,,,,,31.177083333333332,62.18888888888889,1.0879166666666666,231.26107638888888,,0.0,0.0,1009.0612152777777,
2023-04-08,7.9215,41.22717391304348,3.7779861111111113,1.4467592592592593,3.0825694444444447,3.6224652777777777,10.810381944444444,0.3401388888888888,13.780208333333333,,,,,,,30.421458333333334,60.68166666666667,0.8698958333333334,166.56305555555556,,0.0,0.0,1010.7752777777778,
2023-04-09,8.488043478260868,28.683295454545455,4.7590972222222225,,3.5587152777777775,3.4931944444444447,10.824062499999998,0.370625,13.098472222222222,,,,,,,30.67625,61.189166666666665,0.9031250000000001,191.52368055555556,,0.0,0.0,1010.6926388888888,
2023-04-10,11.579565217391304,39.38,4.605138888888889,1.5944444444444443,3.7384027777777775,3.564166666666667,10.859131944444444,0.4407638888888889,13.202916666666667,,,,,,,30.803298611111114,61.43347222222223,0.9547569444444445,180.96972222222223,,0.0,0.0,1009.5027430555556,
2023-04-11,14.695507246376811,53.86397727272727,3.539652777777778,1.3902272727272729,3.0739583333333336,3.528923611111111,10.812395833333333,0.36125,13.333090277777778,,,,,,,31.51184027777778,62.851111111111116,0.8320486111111111,176.68961805555557,,0.0,0.0,1009.4793055555556,
2023-04-12,17.296388888888888,47.22993055555556,3.3975347222222223,1.2191666666666665,2.8736111111111113,3.522222222222222,10.880659722222221,0.6148958333333333,13.819756944444444,,,,,,,31.99277777777778,63.810659722222226,0.728125,192.59475694444447,,0.0,0.0,1008.9457291666668,
2023-04-13,21.905763888888888,72.05350694444445,3.4332638888888884,1.1911666666666667,2.8494097222222226,3.611111111111111,10.909374999999999,0.44798611111111114,13.777708333333335,,,,,,,31.963472222222222,63.74729166666666,0.85125,223.10395833333334,,0.0,0.0,1008.5665277777779,
2023-04-14,22.102065217391303,44.979431818181816,3.5927430555555553,,2.5309375,3.5570486111111115,10.956666666666665,0.43524305555555554,13.593055555555557,,,,,,,31.308298611111113,62.44274305555555,1.2150694444444443,236.4412152777778,,0.0,0.0,1008.4600347222222,
2023-04-15,27.612717391304347,50.183409090909095,3.146354166666667,0.5134375,2.341284722222222,3.8013541666666666,10.910069444444444,0.5226736111111111,13.645104166666668,,,,,,,31.0396875,61.902118055555555,0.9781944444444445,226.7801736111111,,0.0,0.0,1007.8347222222222,
2023-04-16,24.131340579710148,51.61702898550725,3.6275,,2.3039583333333336,3.6029166666666668,10.9403125,0.5608680555555555,13.7678125,,,,,,,31.066875,61.95767361111111,1.0651041666666667,231.51413194444444,,0.0,0.0,1006.8333333333334,
2023-04-17,17.87375,40.54944444444445,2.9538541666666664,0.4475,2.0913541666666666,3.61125,10.948541666666666,0.6255902777777778,13.679618055555556,,,,,,,31.65822916666667,63.148020833333334,1.1916666666666667,235.01093749999998,,0.0,0.0,1006.9898958333333,
2023-04-18,14.42463768115942,31.70469696969697,3.265833333333333,0.4793055555555556,2.329895833333333,3.7659374999999997,10.960416666666667,0.39739583333333334,13.628263888888888,,,,,,,31.44920138888889,62.72309027777778,1.114861111111111,234.43784722222222,,0.0,0.0,1007.777673611111,
2023-04-19,12.906458333333333,32.58297101449275,3.4544791666666668,0.5716666666666667,2.406909722222222,3.7704513888888886,10.877569444444445,0.42166666666666663,13.589513888888888,,,,,,,31.591875,63.018298611111106,1.3531944444444444,236.1861458333333,,0.0,0.0,1006.1321180555556,
2023-04-20,10.651354166666666,30.53265873015873,2.6133680555555556,0.610625,1.8901041666666665,3.762986111111111,11.214791666666665,0.4327083333333333,13.65392361111111,,,,,,,31.703194444444446,63.23260416666667,1.6171180555555555,215.92072916666666,,0.0,0.0,1004.1401736111111,
2023-04-21,12.622326388888888,23.12277777777778,2.8966666666666665,0.5755,2.0420833333333333,3.722847222222222,11.201458333333333,0.44267361111111114,13.5478125,,,,,,,31.787916666666664,63.40493055555555,1.52375,217.0426388888889,,0.0,0.0,1003.8287152777779,
2023-04-22,19.069895833333334,37.936884057971014,2.8362499999999997,0.10166666666666666,1.8904861111111113,3.559652777777778,11.027430555555554,0.4370486111111111,13.76173611111111,,,,,,,32.28746527777778,64.40652777777778,0.9269791666666666,215.28,,0.0,0.0,1003.8876041666666,
2023-04-23,18.956176470588236,42.485882352941175,2.7962745098039217,,1.8369117647058824,3.4606372549019606,11.17485294117647,0.3646078431372549,13.590294117647058,,,,,,,33.08176470588235,65.97549019607843,0.7487745098039216,217.93132352941177,,0.0,0.0,1004.1013235294117,
2023-04-24,14.799615384615382,33.69641666666667,2.3101282051282053,1.609,2.4545512820512823,3.799935897435897,11.086153846153847,0.3405128205128205,13.735064102564102,,,,,,,33.1375,66.08301282051282,0.6803205128205128,209.27256410256408,,0.0,0.0,1005.9356410256411,
2023-04-25,9.379875,32.08990740740741,3.652534722222222,1.8151388888888889,2.6688888888888886,3.2573958333333333,10.991284722222224,0.3021875,13.667986111111112,,,,,,,29.195104166666667,58.248715277777784,0.8401736111111111,229.81163194444446,,0.0,0.0,1006.980625,
2023-04-26,14.747048611111111,58.0959375,4.420208333333334,1.0142857142857145,3.296215277777778,3.2455555555555553,11.146076388888888,0.3277777777777778,13.655520833333334,,,,,,,30.506979166666667,60.85402777777778,1.025763888888889,210.39493055555556,,0.0,0.0,1006.573888888889,
2023-04-27,12.620535714285714,34.874264705882354,9.986203703703703,1.73125,6.163888888888889,5.427731481481482,19.267142857142858,0.3511574074074074,13.389814814814814,,,,,,,29.361157407407404,58.58847222222222,1.2188425925925925,233.59851851851852,,0.0,0.0,1006.8940277777778,
2023-04-28,3.376136363636364,29.441340579710147,10.094513888888889,1.5504166666666666,2.394548611111111,4.042361111111111,9.7025,0.7634375000000001,13.739791666666667,,,,,,,31.056215277777778,61.94309027777778,1.0805208333333334,219.01024305555555,,0.0,0.0,1007.2596874999999,
2023-04-29,4.189464285714286,19.873859649122807,6.1125,,2.3025,3.3935526315789475,11.909561403508771,0.6728070175438596,13.62986842105263,,,,,,,30.27078947368421,60.36043859649123,0.9076754385964912,206.58600877192984,,0.0,0.0,1006.7621052631579,
2023-04-30,,21.503333333333334,3.3724305555555554,1.2391666666666667,1.6530555555555555,2.9424305555555557,12.145486111111111,0.78125,11.317152777777778,,,,,,,31.905555555555555,63.630069444444445,1.2947222222222223,247.09194444444447,,0.0,0.0,1004.9134027777777,
2023-05-01,,5.615277777777778,4.886180555555556,,2.2659375,3.181111111111111,12.008125,0.6253125,10.223263888888889,,,,,,,28.838402777777777,57.52454861111111,1.3339583333333334,227.8146875,,0.0,0.0,1005.4820138888889,
2023-05-02,2.0,9.882291666666667,4.9345486111111105,1.1119999999999999,2.5357986111111113,3.2832291666666666,11.941458333333335,0.22076388888888887,9.736805555555556,,,,,,,27.883854166666666,55.63034722222222,1.4606597222222222,174.16868055555554,,0.0,0.0,1006.4555555555556,
2023-05-03,5.666428571428571,26.51770833333333,4.343506944444445,1.8783333333333332,2.431770833333333,3.358923611111111,11.5184375,0.2815625,11.5028125,,,,,,,27.968437499999997,55.7815625,1.343125,244.5459375,,0.0,0.0,1007.2565625000001,
2023-05-04,5.250486111111111,11.235384615384616,4.065568181818182,0.50625,2.3515530303030303,3.0549999999999997,11.800104166666666,0.2803030303030303,13.476628787878788,,,,,,,29.193522727272725,58.225,1.4119696969696969,248.23901515151513,,0.0,0.0,1006.4693560606061,
2023-05-05,14.4628125,23.73948717948718,3.3823958333333333,0.4771875,2.1749652777777775,2.9632986111111115,11.730972222222222,0.3889236111111111,13.690381944444445,,,,,,,27.4728125,54.82708333333333,1.3595138888888887,265.31618055555555,,0.0,0.0,1006.1515625000001,
2023-05-06,26.485833333333336,55.48357142857143,13.478928571428572,2.095555555555556,10.592777777777778,5.879682539682539,14.923666666666668,1.0001190476190476,13.76059523809524,,,,,,,29.164841269841272,58.18460317460317,1.2292063492063492,270.5100793650794,,0.0,0.0,1005.1393253968255,
2023-05-07,15.387875,30.085625,8.229895833333332,,5.528333333333333,4.526354166666667,10.7196875,0.5867708333333334,12.335347222222223,,,,,,,28.613958333333333,57.108645833333334,1.4359374999999999,259.36791666666664,,0.0,0.0,1005.5463541666667,
2023-05-08,16.415416666666665,29.448703703703707,7.912395833333334,0.8910416666666666,5.968368055555556,4.662361111111111,11.415972222222223,1.1421180555555555,12.596388888888889,,,,,,,30.216631944444444,60.27006944444444,1.429375,257.13631944444444,,0.0,0.0,1004.7601041666667,
2023-05-09,14.776944444444444,23.589375,9.94513888888889,,7.324270833333333,4.528159722222222,11.293020833333332,3.7550347222222222,13.428437500000001,,,,,,,30.44534722222222,60.72322916666667,1.5396527777777778,254.56298611111114,,0.0,0.0,1004.7471875,
2023-05-10,9.899246031746031,20.912539682539684,8.385590277777778,0.8878125,6.396493055555556,4.782152777777778,11.370104166666666,3.3498958333333335,13.5146875,,,,,,,30.506944444444443,60.84538194444445,1.5023958333333332,249.399375,,0.0,0.0,1004.3435763888889,
2023-05-11,9.15594696969697,18.647833333333335,10.328333333333333,0.7883333333333334,7.911557971014493,5.360471014492754,10.843260869565217,1.5882971014492753,13.668478260869565,,,,,,,30.921630434782607,61.67634057971014,1.4958695652173915,235.24742753623187,,0.0,0.0,1005.2178260869565,
2023-05-12,8.230434782608697,16.399210526315787,10.44357638888889,0.5975,7.902361111111111,5.27875,10.92576388888889,0.399375,13.608819444444444,,,,,,,29.80541666666667,59.45041666666666,2.0169444444444444,234.2876736111111,,0.0,0.0,1006.2799305555556,
2023-05-13,4.296631944444445,15.102500000000001,9.862430555555555,0.9551666666666666,7.589930555555555,5.111180555555555,10.92767361111111,0.40586805555555555,13.721701388888889,,,,,,,30.857743055555556,61.55097222222222,2.3103124999999998,217.83663194444443,,0.0,0.0,1006.7318402777778,
2023-05-14,5.638229166666666,15.382,12.298055555555555,,9.266354166666666,4.861493055555555,11.064791666666666,0.3552430555555555,13.668368055555556,,,,,,,31.02784722222222,61.88673611111111,1.9229513888888887,224.19256944444444,,0.0,0.0,1005.4291319444445,
2023-05-15,5.397083333333333,21.16858695652174,11.97717391304348,0.9520833333333333,9.202717391304347,5.531159420289855,9.959886363636365,0.4280797101449275,13.80445652173913,,,,,,,31.47021739130435,62.77833333333333,1.6178623188405796,224.624384057971,,0.0,0.0,1005.8623913043477,
2023-05-16,23.819325396825395,37.75876984126984,15.784563492063493,1.1855,12.377500000000001,7.204126984126984,9.647833333333335,2.8057539682539683,13.805476190476192,,,,,,,32.24876984126984,64.32869047619047,1.225515873015873,237.54646825396827,,0.0,0.0,1006.6315873015873,
2023-05-17,27.953541666666666,44.05875,16.772951388888888,1.2171666666666667,12.965972222222222,7.5512847222222215,10.376388888888888,1.6668402777777775,13.821979166666667,,,,,,,31.70454861111111,63.23583333333334,1.2152083333333332,232.38701388888887,,0.0,0.0,1007.215173611111,
2023-05-18,19.100833333333334,45.39982142857143,19.78047619047619,,15.130535714285713,7.201726190476191,11.526190476190477,0.64,13.88107142857143,,,,,,,31.020535714285717,61.870535714285715,1.7068452380952384,226.43321428571429,,0.0,0.0,1008.8727976190476,
2023-05-19,,,,,,,,,,,,,,,,,,,,,0.0,,,
2023-05-20,,,,,,,,,,,,,,,,,,,,,0.0,,,
2023-05-21,,,,,,,,,,,,,,,,,,,,,0.0,,,
2023-05-22,,,,,,,,,,,,,,,,,,,,,0.0,,,
2023-05-23,,,,,,,,,,,,,,,,,,,,,0.0,,,
2023-05-24,7.28125,28.3125,17.049722222222222,0.81,14.038055555555555,16.130555555555556,134.375,0.8769444444444444,13.3115,,,,,,,30.979444444444443,61.81194444444444,2.1369444444444445,232.25638888888886,,0.0,0.0,1008.2838888888889,
2023-05-25,8.629358974358974,28.940217391304348,13.083090277777778,0.5590833333333334,10.495451388888888,7.288576388888889,2.680416666666667,0.9384375,13.618333333333334,,,,,,,31.596145833333335,63.028715277777785,1.9331249999999998,230.65875000000003,,0.0,0.0,1008.4236805555556,
2023-05-26,8.736979166666666,27.614895833333335,12.50579861111111,0.43462962962962964,9.938159722222222,6.6246875,4.922986111111111,0.6549999999999999,13.675590277777777,,,,,,,31.594444444444445,63.01253472222222,1.4831597222222221,246.91149305555555,,0.0,0.0,1008.6875347222222,
2023-05-27,13.953819444444443,35.808680555555554,7.005763888888889,1.0105,5.3825,6.4501388888888895,4.603750000000001,2.3569444444444443,9.693888888888889,,,,,,,33.09506944444444,66.00659722222223,1.4009027777777778,232.45131944444447,,0.0,0.0,1006.0914583333333,
2023-05-28,13.893680555555555,33.92804347826087,14.924722222222222,,10.038437499999999,5.756041666666667,4.872118055555556,3.355108695652174,11.584756944444445,,,,,,,29.812187499999997,59.471180555555556,1.0295138888888888,242.3589236111111,,0.0,0.0,1005.7300347222222,
2023-05-29,16.17326388888889,35.57482638888889,13.292222222222222,1.67125,9.362326388888889,5.580312500000001,4.812465277777778,3.7660833333333334,13.561041666666668,,,,,,,31.10802083333333,62.04458333333333,0.9537152777777779,234.07666666666668,,0.0,0.0,1006.1428472222223,
2023-05-30,11.002689393939393,27.00371212121212,11.40642361111111,0.749375,8.084479166666666,5.3528125,4.707916666666667,2.133576388888889,11.389965277777778,,,,,,,31.449513888888887,62.73225694444445,1.4150347222222222,226.99569444444444,,0.0,0.0,1006.9060763888889,
2023-05-31,17.737395833333334,34.06651960784314,10.912708333333333,1.1516666666666666,7.781979166666667,5.588715277777777,4.530347222222223,3.023298611111111,10.870347222222222,,,,,,,31.255659722222223,62.3465625,1.432951388888889,241.9077777777778,,0.0,0.0,1006.39125,
2023-06-01,14.846197916666666,23.24077777777778,7.732651515151516,1.3341666666666667,6.14780303030303,6.618484848484848,5.0323529411764705,1.998939393939394,7.96422619047619,,,,,,,32.53878787878788,64.91712121212122,1.4712878787878787,225.75962121212117,,0.0,0.0,1005.1660606060606,
2023-06-02,13.516485507246376,22.864509803921568,13.014444444444445,1.1793749999999998,9.1371875,5.7925,4.2996875,3.602007575757576,10.454895833333333,,,,,,,31.514340277777777,62.85888888888889,1.3699305555555554,237.05663194444446,,0.0,0.0,1005.8421180555556,
2023-06-03,14.700942028985507,22.72807692307692,13.031770833333333,0.8191666666666666,9.78545138888889,6.991076388888889,4.526180555555555,3.6765624999999997,12.079027777777776,,,,,,,31.943159722222223,63.719722222222224,1.598263888888889,233.671875,,0.0,0.0,1005.555486111111,
2023-06-04,12.029746376811595,24.517938596491227,12.542361111111111,,9.486284722222223,5.6378125,4.444791666666666,1.1879513888888888,13.814375,,,,,,,32.127743055555555,64.07871527777777,1.508611111111111,232.89694444444444,,0.0,0.0,1005.4790277777778,
2023-06-05,12.441611111111111,23.4007196969697,14.886111111111111,0.7541666666666668,11.576805555555554,7.375034722222222,4.4671875000000005,1.769826388888889,13.754861111111111,,,,,,,32.00208333333333,63.83770833333333,1.3925,242.04590277777777,,0.0,0.0,1005.0439583333333,
2023-06-06,15.722107843137254,30.044222222222224,13.771284722222221,0.79625,10.616319444444445,7.474791666666667,4.554895833333333,1.3214930555555555,13.365,,,,,,,31.6634375,63.158298611111114,1.171701388888889,239.20072916666666,,0.0,0.0,1004.6578472222222,
2023-06-07,3.8048333333333333,14.354000000000003,12.381166666666667,0.7356666666666667,9.863499999999998,10.738249999999999,4.737916666666667,2.4730833333333333,13.124500000000001,,,,,,,32.63291666666667,65.08425,1.2816666666666667,238.39541666666668,,0.0,0.0,1004.6685,
2023-06-08,6.128260869565217,29.24354166666667,12.180243055555556,0.6766666666666666,9.062118055555556,6.669930555555556,3.855243055555556,1.380486111111111,12.643715277777778,,,,,,,32.23298611111111,64.29083333333334,1.2641666666666667,244.15114583333335,,0.0,0.0,1004.8861805555556,
2023-06-09,4.5375,20.62625,13.307395833333333,0.6125,10.050590277777777,7.0974305555555555,4.447604166666666,1.386423611111111,12.059062500000001,,,,,,,32.12920138888889,64.07239583333333,1.342326388888889,231.6495486111111,,0.0,0.0,1004.03375,
2023-06-10,8.151346153846154,17.157115384615388,16.608555555555554,,12.332555555555556,6.256666666666666,5.3949444444444445,1.4588333333333334,11.125944444444444,,,,,,,31.733777777777778,63.292944444444444,1.3735555555555554,245.09944444444446,,0.0,0.0,1003.7194444444444,
2023-06-11,,,,,,,,,,,,,,,,,,,,,0.0,,,
2023-06-12,18.599907407407407,48.30657407407407,11.231851851851852,0.590625,8.965092592592592,8.014537037037037,5.532291666666667,1.4800925925925925,13.70425925925926,,,,,,,32.903888888888886,65.63416666666666,0.9363888888888889,214.00694444444446,,0.0,0.0,1004.1283333333334,
2023-06-13,8.700760869565217,23.14119565217391,14.886319444444444,,11.104444444444445,4.563229166666667,3.7265972222222223,0.5508333333333333,13.518159722222222,,,,,,,31.05565972222222,61.94565972222222,1.457361111111111,245.22607638888886,,0.0,0.0,1004.2410416666667,
2023-06-14,7.049756944444444,22.70871527777778,12.256388888888887,1.05,9.405347222222222,4.614652777777778,4.6590625,1.621875,12.573749999999999,,,,,,,32.02427083333333,63.87482638888889,1.4928472222222222,243.13524305555555,,0.0,0.0,1005.285486111111,
2023-06-15,11.141041666666666,35.867604166666666,11.652152777777777,1.1232291666666667,9.156215277777777,6.038333333333334,4.7662152777777775,1.7838541666666667,12.520104166666668,,,,,,,32.742361111111116,65.30788194444445,1.1540277777777777,235.39920138888888,,0.0,0.0,1005.0020138888889,
2023-06-16,11.100729166666667,34.366875,12.257847222222223,0.6183333333333334,9.410763888888889,5.332638888888889,4.564965277777778,1.7344444444444445,12.922638888888889,,,,,,,32.4978125,64.81798611111111,1.2626736111111112,233.33600694444442,,0.0,0.0,1004.2491666666666,
2023-06-17,12.66125,37.518750000000004,8.307534722222222,0.8218333333333334,6.082048611111111,3.865625,4.9196875,0.9186111111111112,12.234895833333333,,,,,,,31.138125000000002,62.11263888888889,1.3264583333333333,238.10229166666667,,0.0,0.0,1005.0498611111111,
2023-06-18,15.213645833333333,42.49652777777778,9.550416666666667,,7.017499999999999,2.9023958333333333,5.3322569444444445,0.6615277777777778,12.158368055555556,,,,,,,29.852430555555557,59.56822916666667,1.353402777777778,250.5142708333333,,0.0,0.0,1005.4778819444444,
2023-06-19,13.807465277777778,38.01076388888889,5.359270833333333,0.908452380952381,4.096111111111111,3.0628472222222225,5.505069444444445,0.4721527777777778,11.392569444444446,,,,,,,31.17638888888889,62.18232638888889,1.2897569444444443,248.9244097222222,,0.0,0.0,1004.1062847222223,
2023-06-20,16.6115625,41.40510416666667,6.021076388888889,1.8616666666666666,4.734131944444445,2.8905902777777777,5.2316666666666665,0.5214930555555556,12.798645833333333,,,,,,,30.574479166666666,60.99239583333334,1.304375,240.09145833333332,,0.0,0.0,1003.4052083333332,
2023-06-21,16.486666666666668,40.4046875,5.6678125,0.6679999999999999,4.263055555555556,2.8352430555555554,5.072534722222223,0.4593055555555556,13.779756944444443,,,,,,,29.876840277777777,59.612291666666664,1.215138888888889,236.66458333333333,,0.0,0.0,1004.2243055555555,
2023-06-22,17.5746875,49.855625,5.519583333333333,0.621,4.190104166666667,2.7039930555555554,5.187152777777778,0.41006944444444443,12.82017361111111,,,,,,,30.820069444444446,61.468541666666674,1.4815277777777778,251.86163194444444,,0.0,0.0,1004.383125,
2023-06-23,15.68279411764706,53.591388888888886,7.112083333333333,1.4577777777777776,5.423194444444444,2.8043518518518518,20.924761904761905,0.4904166666666667,13.798333333333334,,,,,,,30.1587962962963,60.16902777777778,1.320925925925926,250.66666666666666,,0.0,0.0,1004.8953240740741,
2023-06-24,16.95125,53.14361111111111,6.405138888888889,0.46124999999999994,4.706250000000001,2.882361111111111,4.354705882352941,1.2116666666666667,13.485416666666667,,,,,,,30.786944444444444,61.41263888888889,1.3244444444444445,245.52861111111113,,0.0,0.0,1003.8563888888889,
2023-06-25,14.995868055555555,50.096875000000004,7.738645833333333,,5.264375,2.248298611111111,6.378055555555555,0.45350694444444445,10.462361111111111,,,,,,,30.464479166666667,60.76336805555555,1.9418402777777777,250.5484027777778,,0.0,0.0,1004.5112847222222,
2023-06-26,7.518194444444444,27.21065972222222,6.557638888888889,0.4907142857142857,4.434861111111111,2.527604166666667,6.417395833333334,0.33,12.488750000000001,,,,,,,31.413680555555555,62.65947916666667,1.7390625,244.28038194444446,,0.0,0.0,1004.9864930555556,
2023-06-27,6.7103125,29.038229166666667,7.477048611111111,0.41133333333333333,4.891770833333333,2.8467361111111114,6.395763888888889,0.6659027777777778,10.873854166666668,,,,,,,31.604444444444443,63.044270833333336,2.1096875,248.22552083333335,,0.0,0.0,1005.6185416666667,
2023-06-28,6.342395833333334,30.875416666666666,6.866736111111112,0.5879761904761904,4.330486111111111,2.6559375,6.118506944444444,0.5353125,12.0075,,,,,,,31.809409722222224,63.44361111111112,1.7565277777777777,246.99972222222223,,0.0,0.0,1006.4332986111111,
2023-06-29,5.754886363636364,27.97513888888889,8.087555555555555,,5.156833333333334,2.274277777777778,6.166076388888889,2.987111111111111,13.131519607843137,,,,,,,32.86116666666667,65.52655555555556,1.672611111111111,245.8062222222222,,0.0,0.0,1006.6897222222221,
2023-06-30,6.225714285714285,30.50339285714286,7.686071428571429,0.5016666666666666,4.9730357142857144,2.255,6.3810714285714285,1.705,13.739464285714286,,,,,,,31.456011904761905,62.73285714285714,1.6299404761904763,255.86369047619047,,0.0,0.0,1007.5066666666668,
2023-07-01,,,,,,,,,,,,,,,,,,,,,0.0,,,
2023-07-02,,,,,,,,,,,,,,,,,,,,,0.0,,,
2023-07-03,,,,,,,,,,,,,,,,,,,,,0.0,,,
2023-07-04,,,,,,,,,,,,,,,,,,,,,0.0,,,
2023-07-05,9.511666666666667,29.486153846153847,3.647564102564103,0.41466666666666663,2.602371794871795,2.6792948717948715,6.54576923076923,0.7592307692307693,13.677307692307693,,,,,,,31.996923076923075,63.79044871794872,2.5272435897435894,242.26711538461538,,0.0,0.0,1002.7603846153846,
2023-07-06,,17.449768518518518,6.619166666666667,0.46,4.140196078431373,2.4113725490196076,18.855625,0.4566666666666666,13.66189393939394,,,,,,,29.217205882352943,58.296176470588236,2.2611274509803923,254.6447549019608,,0.0,0.0,1005.2881862745098,
2023-07-07,1.0,27.95885416666667,6.2700000000000005,0.3765,3.8144565217391304,1.915036231884058,4.904393939393939,0.5730797101449275,12.678550724637683,,,,,,,30.154637681159418,60.15413043478261,2.1280797101449274,243.37702898550725,,0.0,0.0,1006.8603260869564,
2023-07-08,3.8072619047619045,32.82822916666667,6.431180555555556,0.7304999999999999,4.093090277777778,1.6758680555555554,6.7363541666666675,0.8320486111111111,11.561145833333335,,,,,,,30.7778125,61.38413194444445,1.5889236111111111,245.29861111111111,,0.0,0.0,1007.3151041666666,
2023-07-09,5.767058823529411,34.82395833333333,7.074513888888888,,4.472916666666666,1.4151041666666666,6.837083333333333,0.3934722222222222,12.765243055555556,,,,,,,31.71020833333333,63.25621527777778,1.4584374999999998,248.49364583333332,,0.0,0.0,1006.2163194444444,
2023-07-10,8.07945652173913,50.02406250000001,5.233958333333333,1.0420833333333335,3.583888888888889,1.8432986111111112,6.612847222222222,1.6734375000000001,13.382256944444444,,,,,,,30.602604166666666,61.02947916666667,1.1814930555555556,241.4542013888889,,0.0,0.0,1005.7888888888889,
2023-07-11,6.172261904761905,30.485312500000003,5.335729166666667,0.3757142857142857,3.599097222222222,1.7106597222222222,6.8765624999999995,1.8545833333333333,13.451041666666667,,,,,,,28.92861111111111,57.7121875,1.1498263888888889,235.05152777777778,,0.0,0.0,1005.8084027777777,
2023-07-12,7.601041666666667,48.429097222222225,5.079965277777778,0.8763095238095239,3.638576388888889,1.7593055555555557,6.99875,1.237048611111111,12.923333333333334,,,,,,,30.58423611111111,61.00222222222222,1.5107291666666667,248.39552083333334,,0.0,0.0,1005.4034027777778,
2023-07-13,6.681666666666666,36.550937499999996,5.169583333333333,0.6042857142857143,3.6514930555555556,1.758125,6.793020833333333,0.6103472222222223,13.521597222222221,,,,,,,30.822326388888886,61.47430555555555,1.6186458333333336,247.02881944444445,,0.0,0.0,1005.6711805555556,
2023-07-14,5.4809375,34.8521875,5.423923611111111,0.6601190476190476,3.9485763888888887,1.624201388888889,6.666423611111111,0.49614583333333334,13.390104166666667,,,,,,,31.776631944444446,63.38177083333333,1.2633333333333334,240.6313888888889,,0.0,0.0,1006.4939930555556,
2023-07-15,7.0616666666666665,35.19145833333334,4.399930555555556,0.615,3.1822222222222223,1.8493402777777777,6.696666666666666,0.4706597222222222,13.398333333333333,,,,,,,31.668611111111108,63.16763888888889,1.3251041666666665,243.38503472222223,,0.0,0.0,1006.1766319444445,
2023-07-16,9.747708333333334,44.91552083333334,5.744131944444445,,4.014583333333333,1.5497916666666667,6.493541666666666,1.793263888888889,13.604722222222222,,,,,,,30.96597222222222,61.77006944444445,1.0885763888888889,233.9173611111111,,0.0,0.0,1005.6512847222222,
2023-07-17,11.12,46.91916666666666,4.707465277777778,0.6525,3.3947916666666664,1.7592708333333336,6.75857638888889,0.7669791666666667,13.4115625,,,,,,,31.29048611111111,62.40461805555555,1.4986805555555556,247.28871527777778,,0.0,0.0,1005.2305902777779,
2023-07-18,3.1332291666666667,33.8340625,4.759270833333333,0.5343055555555556,3.3874305555555555,1.7796874999999999,6.817569444444445,1.8337500000000002,13.88295138888889,,,,,,,32.08045138888889,63.976979166666666,2.3480902777777777,254.27274305555557,,0.0,0.0,1004.9560069444445,
2023-07-19,3.070227272727273,31.28982142857143,5.4437500000000005,0.2758333333333333,3.7948214285714283,1.6342857142857141,6.99875,2.974107142857143,13.77767857142857,,,,,,,31.259999999999998,62.35267857142857,2.2669642857142858,245.57375000000002,,0.0,0.0,1004.5226785714286,
2023-07-20,5.9475,73.415,3.1564285714285716,0.5389583333333333,2.513214285714286,2.590357142857143,144.52,4.162857142857143,,,,,,,,32.88690476190476,65.56892857142857,2.280238095238095,246.77261904761903,,0.0,0.0,1003.1863095238095,
2023-07-21,9.873371212121212,84.2355,6.188825757575757,0.4774999999999999,3.681098484848485,1.4864772727272728,5.0756250000000005,1.445871212121212,8.446666666666667,,,,,,,32.05068181818182,63.91848484848485,1.9211363636363636,253.58431818181816,,0.0,0.0,1004.2149242424242,
2023-07-22,10.448368055555555,65.91135416666667,7.401666666666666,0.4716666666666667,3.5325,1.4112847222222225,6.784965277777778,2.166770833333333,8.214236111111111,,,,,,,32.29246527777778,64.3890625,1.7819791666666667,251.3864583333333,,0.0,0.0,1005.6231944444444,
2023-07-23,5.533541666666667,43.27072916666666,6.951979166666667,,3.7175694444444445,1.3031249999999999,7.263020833333333,0.4853125,8.013854166666667,,,,,,,31.841493055555556,63.499722222222225,1.5770833333333334,247.08270833333336,,0.0,0.0,1005.8854513888888,
2023-07-24,6.087458333333333,41.51322916666667,5.032256944444445,0.8825,2.987465277777778,1.616076388888889,7.394930555555555,0.4654513888888889,8.754513888888889,,,,,,,31.31826388888889,62.47090277777778,1.5825347222222224,250.74322916666665,,0.0,0.0,1005.6405902777778,
2023-07-25,3.0992028985507245,34.7690625,4.9347916666666665,1.0303333333333335,3.0488541666666666,1.5670833333333334,7.4870833333333335,0.4303472222222222,13.632152777777778,,,,,,,31.499756944444442,62.81763888888889,1.7471875000000001,257.31166666666667,,0.0,0.0,1005.5243402777778,
2023-07-26,4.379801587301587,37.50989583333333,4.672152777777778,0.77125,2.885659722222222,1.6463541666666668,7.336944444444445,0.43607638888888883,13.610868055555557,,,,,,,31.3096875,62.44236111111112,1.4589236111111112,248.46197916666665,,0.0,0.0,1006.583125,
2023-07-27,5.63195652173913,38.541562500000005,4.567395833333333,0.6777777777777777,2.9203819444444448,1.645347222222222,7.195659722222222,0.4376388888888889,13.831180555555555,,,,,,,31.155034722222222,62.148854166666666,1.4195833333333334,246.07135416666665,,0.0,0.0,1006.9236805555556,
2023-07-28,9.514131944444445,50.825,4.65375,0.1,2.845798611111111,1.6646180555555556,7.111597222222223,0.41753472222222227,15.171597222222223,,,,,,,31.786805555555556,63.398784722222224,1.541388888888889,251.48958333333334,,0.0,0.0,1006.1220833333333,
2023-07-29,11.7415625,56.31260416666667,5.606319444444445,,2.9877083333333334,1.5825694444444445,7.136319444444445,0.4079861111111111,14.222743055555556,,,,,,,31.867743055555554,63.56628472222223,1.4440277777777777,246.31472222222223,,0.0,0.0,1005.8238194444444,
2023-07-30,13.012500000000001,55.473958333333336,5.7734375,,2.7373958333333337,1.6947916666666665,8.038298611111111,0.44635416666666666,13.682391304347826,,,,,,,31.540729166666665,62.90895833333334,1.4076041666666665,249.56885416666668,,0.0,0.0,1005.4105208333334,
2023-07-31,11.725833333333334,56.374021739130434,6.256041666666667,0.6691666666666666,2.7495138888888886,1.7192708333333335,6.4528125,0.4451388888888889,13.774166666666668,,,,,,,31.406562499999996,62.64253472222222,1.4589930555555555,242.63246527777778,,0.0,0.0,1005.0196180555555,
2023-08-01,10.387187500000001,56.98282608695652,5.525312500000001,0.43666666666666665,2.827777777777778,1.669201388888889,6.874791666666667,0.4179513888888889,13.663784722222223,,,,,,,31.128680555555558,62.07666666666666,1.4886458333333332,243.15479166666668,,0.0,0.0,1005.4297569444444,
2023-08-02,13.263784722222221,61.1084375,5.552534722222222,0.5728333333333333,2.8829166666666666,1.6208333333333333,6.847777777777778,0.3743402777777778,11.306666666666667,,,,,,,31.5428125,62.91329861111111,1.5008333333333335,245.87541666666667,,0.0,0.0,1006.3475694444445,
2023-08-03,11.677847222222221,54.2005,4.750694444444444,0.3928333333333333,2.1943055555555557,1.8329166666666667,7.047361111111111,0.43878472222222226,12.682708333333332,,,,,,,31.34472222222222,62.51538194444444,1.2569791666666668,230.42166666666665,,0.0,0.0,1005.854375,
2023-08-04,9.053333333333333,46.425000000000004,4.269097222222222,0.438,2.167013888888889,1.8943750000000001,6.792638888888889,0.41631944444444446,11.822881944444445,,,,,,,31.75173611111111,63.323923611111105,1.350451388888889,241.21684027777778,,0.0,0.0,1007.3917013888889,
2023-08-05,9.784236111111111,49.56453125,3.797013888888889,0.7480555555555556,2.208923611111111,1.870902777777778,6.815416666666667,0.43812500000000004,12.4040625,,,,,,,31.57409722222222,62.976875,1.2526388888888889,233.07611111111112,,0.0,0.0,1008.2320138888889,
2023-08-06,9.815972222222223,42.951875,4.691215277777778,,2.390138888888889,1.7476041666666668,7.127152777777778,0.5023263888888889,13.08625,,,,,,,31.558923611111112,62.94104166666667,1.1401041666666667,221.32666666666668,,0.0,0.0,1007.4063194444444,
2023-08-07,11.780798611111111,51.86902173913043,3.7490277777777776,0.5583333333333333,2.036770833333333,1.9112152777777778,7.135555555555555,0.45663194444444444,13.484305555555556,,,,,,,31.472986111111112,62.77520833333333,1.1336458333333332,221.479375,,0.0,0.0,1005.7483680555556,
2023-08-08,9.10175,38.285000000000004,5.032583333333333,,2.5900833333333333,1.6575,7.440250000000001,0.42349999999999993,13.114833333333333,,,,,,,29.018333333333334,57.88733333333333,1.0595833333333333,248.69875000000002,,0.0,0.0,1005.6105,
2023-08-09,12.20159722222222,42.715138888888895,4.426388888888889,3.019375,2.911388888888889,2.2104166666666667,22.498333333333335,1.6178472222222222,13.594999999999999,,,,,,,32.15569444444444,64.13208333333334,1.4202777777777778,219.15902777777777,,0.0,0.0,1007.0220138888889,
2023-08-10,11.400729166666666,49.48208333333333,4.089930555555555,0.6923611111111111,1.8583680555555555,1.9254166666666668,5.948680555555556,1.9349637681159422,13.847666666666665,,,,,,,30.364201388888887,60.56628472222223,1.2134027777777778,226.52288194444444,,0.0,0.0,1008.1251736111111,
2023-08-11,17.106754385964912,57.162499999999994,4.326825396825397,0.6379166666666667,2.1262301587301584,1.8087698412698412,7.483690476190477,0.7011507936507937,13.692894736842106,,,,,,,30.84722222222222,61.515912698412706,1.202579365079365,238.67996031746029,,0.0,0.0,1007.3842460317461,
2023-08-12,14.59075,48.2925,3.228712121212121,0.47124999999999995,2.356818181818182,2.1786363636363637,33.0559375,0.3679545454545455,13.685416666666669,,,,,,,31.535075757575758,62.90477272727273,1.4178787878787877,245.23901515151513,,0.0,0.0,1006.8791666666667,
2023-08-13,9.22948717948718,48.2151282051282,5.328397435897435,,2.5612820512820513,1.6212179487179486,7.160769230769231,0.3535897435897436,,,,,,,,29.187884615384615,58.22788461538461,1.382371794871795,265.313141025641,,0.0,0.0,1007.1605128205127,
2023-08-14,16.314930555555556,53.03333333333333,2.2995833333333335,0.9076041666666667,1.7631547619047618,2.007083333333333,8.518392857142858,0.5020833333333333,13.489166666666666,,,,,,,31.848214285714285,63.50523809523809,1.4391666666666667,233.38482142857146,,0.0,0.0,1007.0395238095238,
2023-08-15,,31.914652777777775,4.046840277777778,,2.0548958333333336,1.775173611111111,8.423993055555556,0.5966666666666667,13.307569444444445,,,,,,,29.81423611111111,59.46663194444445,1.6415972222222222,254.50684027777777,,0.0,0.0,1007.3728124999999,
2023-08-16,6.908787878787879,25.109848484848484,3.256979166666667,1.2183333333333333,2.008125,1.8411458333333333,8.608854166666667,0.4816666666666667,13.450833333333334,,,,,,,30.24083333333333,60.317395833333336,1.7429166666666667,246.0404166666667,,0.0,0.0,1007.6582291666667,
2023-08-17,5.1810984848484845,26.808627450980392,3.239963768115942,0.35805555555555557,1.9804347826086954,1.8606521739130435,7.2496212121212125,0.642536231884058,13.35861111111111,,,,,,,30.459057971014495,60.75402173913044,2.080326086956522,238.43192028985507,,0.0,0.0,1007.0854347826087,
2023-08-18,2.929122807017544,31.95406862745098,2.578888888888889,0.21729166666666666,1.3255902777777777,2.1370138888888888,8.490625,0.2964236111111111,13.918125,,,,,,,31.17565972222222,62.18625,2.205347222222222,238.22666666666666,,0.0,0.0,1006.184548611111,
2023-08-19,5.647391304347827,23.161622807017544,2.5376041666666667,0.4170833333333333,1.3654166666666665,2.0968750000000003,8.684131944444443,0.30541666666666667,13.529270833333333,,,,,,,31.637638888888887,63.10069444444445,1.825763888888889,242.38822916666666,,0.0,0.0,1005.3609722222222,
2023-08-20,4.119561403508771,21.519201388888888,3.2290625,,1.6867708333333333,1.9818402777777777,8.686215277777778,0.38809027777777777,13.522361111111111,,,,,,,30.896805555555556,61.62729166666667,1.470590277777778,248.38871527777778,,0.0,0.0,1005.2852430555555,
2023-08-21,6.995394736842105,36.801818181818184,2.3475,0.4667708333333333,1.5463541666666665,2.047986111111111,8.614826388888888,0.4033680555555555,13.589130434782609,,,,,,,31.335034722222222,62.50010416666667,1.1636458333333333,220.30274305555554,,0.0,0.0,1004.6185763888889,
2023-08-22,3.7789583333333336,42.962812500000005,2.3214930555555555,0.8269791666666667,1.6334375,1.9760416666666665,8.490729166666666,0.44673611111111106,13.78875,,,,,,,31.06267361111111,61.95836805555555,1.2863541666666667,228.1846875,,0.0,0.0,1004.9533333333334,
2023-08-23,8.903333333333334,31.4110294117647,2.2511111111111113,0.5954166666666666,1.3727777777777779,2.104027777777778,8.518055555555556,0.40430555555555553,13.687916666666666,,,,,,,31.127407407407404,62.08324074074075,1.410601851851852,252.4214351851852,,0.0,0.0,1005.0793518518518,
2023-08-24,4.890333333333333,30.90121527777778,2.9639583333333337,0.4885,1.601736111111111,1.9980555555555555,8.396041666666667,0.41409722222222217,13.57848484848485,,,,,,,31.05125,61.93,1.6710069444444444,247.87770833333332,,0.0,0.0,1005.3489930555555,
2023-08-25,15.369807692307692,31.052675438596495,2.3641203703703706,0.49072916666666666,1.3925925925925926,2.068564814814815,8.09675,0.41356481481481483,13.946000000000002,,,,,,,30.928333333333335,61.68175925925925,1.706435185185185,248.77231481481482,,0.0,0.0,1005.1207407407406,
2023-08-26,14.864007936507935,38.68978260869565,2.810583333333333,0.39116666666666666,1.3815000000000002,2.093208333333333,8.16623188405797,0.37879166666666664,13.902041666666667,,,,,,,31.035043859649125,61.895131578947364,1.6288596491228071,242.6648684210526,,0.0,0.0,1006.6282456140352,
2023-08-27,13.221775362318839,26.402149122807018,3.278784722222222,,1.27375,2.129652777777778,8.196041666666666,0.3700347222222222,13.299791666666666,,,,,,,31.014340277777777,61.85795138888889,1.7270833333333335,241.8682986111111,,0.0,0.0,1007.1050347222222,
2023-08-28,12.494920634920634,23.200583333333334,2.5471180555555555,0.5387962962962963,1.3130208333333333,2.1050347222222223,8.085625,0.40673611111111113,15.204166666666666,,,,,,,30.985625,61.80916666666667,2.0027430555555554,241.26850694444443,,0.0,0.0,1006.5688194444446,
2023-08-29,6.750797101449274,27.283125,2.9978472222222226,0.5058333333333334,1.5353472222222224,2.0084375,8.145451388888889,0.3901736111111111,13.932321428571429,,,,,,,29.861909722222222,59.57256944444445,1.8784375000000002,240.2577083333333,,0.0,0.0,1005.9910069444445,
2023-08-30,13.17375,32.345625,2.9670486111111107,0.421,1.3734722222222222,2.106875,8.286145833333334,0.39343750000000005,12.588888888888889,,,,,,,29.878854166666667,59.59777777777777,1.3903125,254.69222222222223,,0.0,0.0,1006.3168402777778,
2023-08-31,18.4095,38.42546296296296,2.6792105263157895,0.8925,1.2814473684210526,2.1291228070175436,8.386842105263158,0.41355263157894734,12.960219298245613,,,,,,,30.28649122807018,60.40850877192983,1.2743421052631578,249.8288157894737,,0.0,0.0,1005.9256578947369,
2023-09-01,7.342638888888889,25.462569444444444,1.9542361111111113,0.6803333333333332,1.3008333333333333,2.126805555555556,7.855416666666667,0.4272222222222222,11.801666666666668,,,,,,,28.565972222222225,57.00118055555556,2.0269444444444447,239.74194444444444,,0.0,0.0,1006.614375,
2023-09-02,10.967894736842105,27.223333333333333,2.926477272727273,0.5003333333333333,1.4394318181818182,2.04405303030303,8.106780303030304,0.4064015151515152,13.566617647058823,,,,,,,29.894246031746032,59.616547619047616,1.8963492063492062,250.00650793650792,,0.0,0.0,1006.24,
2023-09-03,13.776444444444445,28.173,4.396444444444445,,1.9367777777777777,1.8251111111111114,8.630722222222223,0.3826666666666666,13.687111111111111,,,,,,,30.169222222222224,60.16383333333333,1.5695000000000001,237.26694444444445,,0.0,0.0,1005.8778333333333,
2023-09-04,7.837628205128206,17.486794871794874,2.3105357142857144,0.588,1.3411309523809525,2.0913690476190476,8.370059523809525,2.2173809523809522,,,,,,,,32.79987179487179,65.4248076923077,2.084423076923077,245.15429487179486,,0.0,0.0,1002.9527564102565,
2023-09-05,13.43469696969697,27.35473484848485,3.105659722222222,0.41166666666666674,1.4492013888888888,2.0247916666666668,8.352291666666666,1.4286458333333334,13.495833333333332,,,,,,,30.367256944444446,60.59017361111111,2.077013888888889,238.08135416666667,,0.0,0.0,1003.8688194444444,
2023-09-06,12.239062500000001,37.17177083333333,2.9439930555555556,,1.2919097222222222,2.137986111111111,8.370694444444444,0.19090277777777775,13.667048611111111,,,,,,,29.745833333333334,59.34621527777778,2.3304513888888887,233.92829861111113,,0.0,0.0,1005.0575347222222,
2023-09-07,11.878854166666665,27.825034722222224,2.645,0.41,1.3166666666666667,2.1069444444444443,8.342291666666666,0.15826388888888887,13.806231884057972,,,,,,,29.84041666666667,59.54572916666667,2.289930555555556,231.2629861111111,,0.0,0.0,1005.9290277777777,
2023-09-08,11.504618055555556,27.252572463768114,2.5008333333333335,0.378125,1.1346180555555556,2.1957986111111114,8.316006944444444,0.11118055555555555,13.65986111111111,,,,,,,29.827951388888888,59.511875,2.3635763888888888,230.12156249999998,,0.0,0.0,1006.8371874999999,
2023-09-09,11.377894736842105,26.23482456140351,2.4237719298245617,0.5469999999999999,1.297280701754386,2.1200877192982457,8.37640350877193,0.17385964912280702,13.78675925925926,,,,,,,30.610833333333332,61.05280701754386,1.8956140350877193,238.8878947368421,,0.0,0.0,1005.7279385964912,
2023-09-10,,,,,,,,,,,,,,,,,,,,,0.0,,,
2023-09-11,9.334305555555556,24.197954545454547,1.9637499999999999,0.5493333333333333,1.3502083333333335,2.071458333333333,7.98,0.12048611111111111,,,,,,,,32.032916666666665,63.87965277777778,1.3327777777777776,236.13819444444445,,0.0,0.0,1004.7757638888888,
2023-09-12,14.333645833333334,31.57027777777778,2.615451388888889,0.5783333333333334,1.443263888888889,2.026666666666667,8.112534722222222,0.17753472222222222,13.070416666666667,,,,,,,30.58107638888889,60.998333333333335,1.4026041666666667,241.32364583333333,,0.0,0.0,1005.4923611111111,
2023-09-13,13.968194444444444,31.534924242424243,2.9340972222222224,1.0226190476190475,1.626840277777778,1.9177083333333333,8.313333333333334,0.1653125,13.473333333333333,,,,,,,29.87059027777778,59.5834375,1.7393402777777778,235.13336805555556,,0.0,0.0,1005.8461805555556,
2023-09-14,11.305652173913044,27.31699275362319,3.366557971014493,0.49050000000000005,1.1365942028985507,2.2157246376811592,7.981702898550725,0.11257246376811593,6.401388888888889,,,,,,,29.55840579710145,58.95847826086957,2.074275362318841,236.07992753623188,,0.0,0.0,1006.1064855072464,
2023-09-15,7.161488095238096,21.849285714285713,1.90875,0.22541666666666665,0.9700595238095239,2.2567857142857144,8.119285714285715,0.09547619047619046,8.161875,,,,,,,30.1860119047619,60.21351190476191,2.619642857142857,227.10214285714284,,0.0,0.0,1007.2381547619049,
2023-09-16,7.8573611111111115,22.69337121212121,2.349270833333333,0.2905,1.0100347222222223,2.283263888888889,8.376701388888888,0.19298611111111108,6.3254166666666665,,,,,,,29.567777777777778,58.99027777777778,2.647847222222222,231.44291666666666,,0.0,0.0,1007.2145486111111,
2023-09-17,6.421666666666667,16.154358974358974,2.635128205128205,,0.981923076923077,2.351923076923077,8.562628205128204,0.12243589743589743,,,,,,,,29.125064102564103,58.103589743589744,2.1674358974358974,232.2805128205128,,0.0,0.0,1007.0717307692308,
2023-09-18,6.903257575757576,23.149166666666666,2.265530303030303,,0.5241666666666667,2.5937878787878788,8.566590909090909,0.46174242424242423,12.48,,,,,,,28.38840909090909,56.64492424242424,2.209090909090909,237.26727272727274,,0.0,0.0,1006.5734090909092,
2023-09-19,8.990277777777777,22.71963768115942,2.252465277777778,0.42250000000000004,0.8468749999999999,2.409895833333333,8.854409722222222,0.4466666666666666,13.98388888888889,,,,,,,29.340902777777774,58.52340277777778,1.655451388888889,246.12104166666666,,0.0,0.0,1007.4944444444445,
2023-09-20,9.522604166666666,21.47736111111111,2.287326388888889,0.3425,1.0134375,2.3146875000000002,8.770625,0.10607638888888887,14.925138888888888,,,,,,,29.939791666666665,59.72173611111111,1.7278819444444444,240.84385416666666,,0.0,0.0,1007.4292013888889,
2023-09-21,13.971041666666666,31.613854166666666,2.2875,0.6326388888888889,1.1682291666666667,2.2016319444444448,8.567916666666667,0.08743055555555555,5.043214285714286,,,,,,,30.187187500000004,60.21239583333334,1.474201388888889,247.0131597222222,,0.0,0.0,1007.3453819444444,
2023-09-22,11.326284722222221,24.44472222222222,2.306159420289855,0.4545,1.1460507246376812,2.224384057971015,8.772173913043478,0.0689855072463768,12.820208333333333,0.0,,,,,,29.849710144927535,59.54057971014493,1.7120652173913042,247.08384057971014,,0.0,0.0,1007.3526811594203,
2023-09-23,10.291174242424242,28.249772727272727,2.110492424242424,0.5755,1.0648863636363635,2.246477272727273,8.801439393939393,0.10473484848484847,13.757878787878788,,,,,,,30.305719696969696,60.44912878787879,1.7684469696969698,245.32670454545453,,0.0,0.0,1007.2047348484848,
2023-09-24,,,,,,,,,,,,,,,,,,,,,0.0,,,
2023-09-25,14.681346153846155,40.489423076923075,1.6382051282051282,0.6089285714285715,1.2089102564102565,2.125576923076923,8.121346153846154,0.17243589743589743,13.601346153846153,,,,,,,32.41429487179487,64.64442307692308,1.3405769230769229,233.49653846153845,,0.0,0.0,1005.443782051282,
2023-09-26,19.01685606060606,40.624880952380956,2.1507954545454546,0.9908333333333333,1.1792424242424242,2.183598484848485,8.572916666666666,0.18143939393939393,13.634280303030302,,,,,,,30.11776515151515,60.08140151515151,1.350151515151515,242.32136363636363,,0.0,0.0,1005.8768181818182,
2023-09-27,16.974423076923078,42.84564814814815,1.722371794871795,0.5095238095238096,1.161025641025641,2.1226282051282053,8.11346153846154,0.12916666666666665,13.471217948717948,,,,,,,30.662371794871795,61.14910256410257,1.3408333333333333,230.52833333333334,,0.0,0.0,1005.7689102564102,
2023-09-28,11.772361111111111,28.248499999999996,2.6954166666666666,,1.0185416666666667,2.3903125,8.925868055555556,0.0965625,13.636388888888888,,,,,,,29.744340277777777,59.335625,1.7529513888888888,247.27409722222225,,0.0,0.0,1006.2240625,
2023-09-29,9.292753623188405,24.685151515151517,2.0738541666666666,0.3245833333333333,1.0154166666666666,2.3111111111111113,8.798993055555556,0.1009375,13.761249999999999,,,,,,,30.016284722222224,59.874340277777776,2.417291666666667,235.90194444444444,,0.0,0.0,1007.0143750000001,
2023-09-30,6.319375,23.404007936507938,2.2393402777777776,,0.9497222222222222,2.3697916666666665,8.5896875,0.0940625,13.65076388888889,,,,,,,29.67565972222222,59.21197916666667,2.695451388888889,228.74319444444447,,0.0,0.0,1007.5215277777778,
2023-10-01,7.197152777777777,26.097916666666666,2.2640625,,0.8740277777777777,2.4341319444444447,8.62517361111111,0.12055555555555554,13.590763888888889,,,,,,,29.31090277777778,58.47649305555556,2.4650694444444445,229.6646875,,0.0,0.0,1007.4471180555556,
2023-10-02,8.72355072463768,26.414208333333335,2.0821527777777775,,0.784236111111111,2.5160416666666667,8.726770833333333,0.2013194444444444,13.533229166666667,,,,,,,29.24045138888889,58.33267361111111,2.4502430555555557,232.07409722222224,,0.0,0.0,1007.8940625,
2023-10-03,6.145555555555556,23.44825396825397,1.7953819444444443,0.2091666666666667,0.8852083333333334,2.411979166666667,8.629375,0.13684027777777777,13.692916666666667,,,,,,,28.888229166666665,57.640902777777775,2.4634375,232.26982638888887,,0.0,0.0,1008.0004166666666,
2023-10-04,7.616449275362319,25.299128787878786,1.8122569444444443,0.3525,0.8713194444444444,2.408923611111111,8.502291666666666,0.16854166666666667,13.602291666666666,,,,,,,29.184236111111108,58.21704861111112,2.2753472222222224,231.98687499999997,,0.0,0.0,1008.1658333333334,
2023-10-05,11.490757575757577,28.127083333333335,1.9127651515151514,0.6118055555555556,0.9819318181818182,2.3606060606060604,8.412803030303031,0.18875,13.62189393939394,,,,,,,29.36662878787879,58.575,1.5910606060606058,233.4907196969697,,0.0,0.0,1007.5112121212121,
2023-10-06,17.168214285714285,36.246964285714284,1.5833333333333335,0.2885,0.9644642857142857,2.3107738095238095,8.873690476190477,0.18779761904761902,13.726130952380952,,,,,,,31.097619047619048,62.02809523809524,1.561904761904762,228.7552380952381,,0.0,0.0,1006.0988095238096,
2023-10-07,21.204305555555553,47.412222222222226,1.9333333333333333,0.671,1.005486111111111,2.3090972222222224,8.687534722222223,0.24708333333333332,13.689618055555556,,,,,,,30.6540625,61.14052083333333,1.4501736111111112,238.2428472222222,,0.0,0.0,1006.5837152777777,
2023-10-08,17.100515873015873,33.1959126984127,2.1654513888888887,,0.8579861111111112,2.4365625,8.448125,0.2962152777777778,13.546666666666667,,,,,,,30.189513888888886,60.22076388888889,2.0308680555555556,239.5404166666667,,0.0,0.0,1008.3020138888888,
2023-10-09,5.963020833333334,16.922638888888887,2.2285416666666666,,0.8052083333333333,2.4810416666666666,8.500625000000001,0.355625,13.721770833333332,,,,,,,30.040694444444444,59.92124999999999,1.8785416666666668,239.32496527777778,,0.0,0.0,1009.9506944444444,
2023-10-10,6.065362318840579,12.395543478260867,1.974826388888889,0.2125,0.8963194444444444,2.4111805555555557,8.402604166666666,0.3627777777777778,13.71625,,,,,,,30.078298611111112,59.99454861111111,2.051111111111111,239.69479166666667,,0.0,0.0,1009.4722222222222,
2023-10-11,7.887028985507246,20.13076388888889,2.0716666666666668,0.5275000000000001,0.9535069444444444,2.3627083333333334,8.623993055555555,0.3132638888888889,13.526319444444445,,,,,,,29.967743055555555,59.780451388888885,2.0561805555555552,240.00013888888887,,0.0,0.0,1008.9539583333334,
2023-10-12,13.474409722222221,27.198219696969694,2.124236111111111,0.45099999999999996,0.9361805555555556,2.38875,8.316597222222223,0.2886111111111111,13.475729166666667,,,,,,,28.33763888888889,56.53402777777777,1.5650694444444444,257.14479166666666,,0.0,0.0,1009.696111111111,
2023-10-13,16.49795138888889,48.432878787878785,2.121111111111111,0.19777777777777775,0.9448958333333334,2.4181250000000003,8.604027777777778,0.2784027777777778,13.663020833333334,,,,,,,29.160590277777775,58.15618055555556,1.3660416666666668,257.0518402777778,,0.0,0.0,1010.3460069444445,
2023-10-14,11.244239130434783,21.544601449275362,1.9244444444444444,0.3510416666666667,0.9021527777777778,2.4348958333333335,8.6459375,0.27614583333333337,13.751875,,,,,,,29.16298611111111,58.1796875,1.592951388888889,251.5928125,,0.0,0.0,1010.3511805555555,
2023-10-15,20.063181818181818,33.11647727272727,2.0282291666666667,,0.7767013888888888,2.5615277777777776,8.8284375,0.2212847222222222,13.739027777777778,,,,,,,29.027569444444442,57.89850694444445,1.4972569444444443,264.03246527777776,,0.0,0.0,1009.1234722222222,
2023-10-16,8.427277777777778,11.947833333333334,1.9021376811594204,0.4183333333333332,0.8033333333333333,2.5184782608695655,8.718659420289855,0.3018840579710145,13.768514492753624,,,,,,,26.41278985507246,52.69688405797102,1.5868840579710146,263.4741666666667,,0.0,0.0,1009.16365942029,
2023-10-17,21.897820512820513,53.048525641025634,1.7189743589743591,0.5575,1.2163461538461537,2.239551282051282,8.71102564102564,0.2618589743589744,13.518205128205128,,,,,,,29.64448717948718,59.117243589743595,1.2131410256410258,264.5644230769231,,0.0,0.0,1009.1951282051282,
2023-10-18,34.53119565217391,80.82579710144928,2.0725694444444445,0.9233333333333332,1.1144791666666667,2.3553819444444444,8.716979166666667,0.24149305555555556,13.794166666666667,,,,,,,28.753715277777776,57.35427083333334,1.1331597222222223,254.42416666666668,,0.0,0.0,1010.2978125,
2023-10-19,49.14319444444445,93.70475694444444,1.9465277777777779,1.3425,1.3904513888888888,2.1398958333333336,8.759791666666667,0.22847222222222222,13.700486111111111,,,,,,,28.905069444444447,57.66034722222222,1.1133680555555554,243.70236111111112,,0.0,0.0,1010.145798611111,
2023-10-20,39.89355072463768,45.90012820512821,1.6675793650793649,0.5085416666666667,1.0757539682539683,2.299920634920635,8.845,0.2401086956521739,13.790416666666667,,,,,,,28.21933333333333,56.31395833333333,1.4693333333333334,263.8894583333333,,0.0,0.0,1009.8969166666668,
2023-10-21,33.06486842105263,53.63714912280702,1.6562719298245614,0.6482291666666666,1.1285964912280704,2.261315789473684,8.988026315789474,0.3549122807017544,13.762631578947369,,,,,,,29.459780701754383,58.74811403508772,1.2325877192982455,262.48460526315785,,0.0,0.0,1009.9300877192982,
2023-10-22,33.78685606060606,49.840530303030306,2.1191319444444443,,0.9774652777777778,2.4541666666666666,8.867569444444444,0.31725694444444447,13.705104166666667,,,,,,,28.62625,57.098506944444445,1.1494097222222222,259.133125,,0.0,0.0,1010.5715972222223,
2023-10-23,30.45905303030303,46.62477272727272,1.9853472222222222,,0.8601736111111111,2.520034722222222,8.753020833333332,0.32749999999999996,13.786458333333334,,,,,,,28.496875,56.85232638888889,1.3196527777777778,260.6691666666666,,0.0,0.0,1010.288923611111,
2023-10-24,21.536984126984127,40.544666666666664,2.093159722222222,,0.7509375,2.636979166666667,8.770451388888889,0.32631944444444444,13.872951388888888,,,,,,,27.50236111111111,54.869618055555556,1.2942708333333333,261.02017361111115,,0.0,0.0,1009.8513541666666,
2023-10-25,19.819791666666667,49.64734848484849,1.8196180555555557,0.559861111111111,0.9939930555555555,2.4296180555555558,8.9234375,0.37149305555555556,13.664652777777777,,,,,,,27.82253472222222,55.51770833333333,1.3819444444444444,266.2553472222222,,0.0,0.0,1010.6862152777777,
2023-10-26,33.952708333333334,86.03697916666665,2.144027777777778,0.5732142857142858,1.3388194444444446,2.210625,8.7278125,0.32006944444444446,13.670381944444443,,,,,,,28.843888888888888,57.533090277777774,1.0885416666666667,266.96694444444444,,0.0,0.0,1010.4346180555555,
2023-10-27,45.13226851851852,92.10125,2.1481944444444445,0.8294791666666667,1.4247916666666667,2.1442361111111112,8.822430555555556,0.3410069444444444,13.791041666666667,,,,,,,29.342291666666668,58.51885416666667,1.0758333333333334,260.5395833333333,,0.0,0.0,1009.3461111111111,
2023-10-28,39.971805555555555,77.966375,2.2948958333333334,1.1333333333333333,1.5202430555555555,2.0849305555555557,8.617569444444444,0.3699305555555556,13.665347222222223,,,,,,,28.527673611111112,56.925381944444446,1.0762847222222223,256.81416666666667,,0.0,0.0,1009.3740972222222,
2023-10-29,20.62829861111111,43.6734375,2.6448263888888888,,1.381875,2.2626041666666667,8.658020833333333,0.30940972222222224,13.611979166666666,,,,,,,28.18361111111111,56.22638888888889,1.026875,255.62586805555554,,0.0,0.0,1009.261875,
2023-10-30,7.045416666666666,14.159625,2.154201388888889,0.2544444444444444,1.2400347222222223,2.3060069444444444,8.770590277777778,0.39013888888888887,13.68138888888889,,,,,,,25.430902777777778,50.73295138888889,0.9644791666666667,244.74947916666667,,0.0,0.0,1009.5375347222222,
2023-10-31,35.73753472222222,66.94128472222222,1.9194444444444445,0.6509375,1.2249305555555556,2.2794097222222223,8.765243055555556,0.21048611111111112,13.628159722222222,,,,,,,28.036180555555557,55.93413194444444,1.0591666666666668,234.7720833333333,,0.0,0.0,1009.4440972222222,
2023-11-01,24.50072916666667,59.44057971014493,2.2811458333333334,0.9052380952380953,1.528472222222222,2.132951388888889,8.858402777777778,0.14583333333333334,13.709479166666666,,,,,,,28.464652777777776,56.766597222222224,1.3112152777777777,245.62291666666667,,0.0,0.0,1009.4694791666666,
2023-11-02,7.9659615384615385,40.68923611111111,3.115897435897436,0.5881666666666666,2.30275641025641,1.715320512820513,8.742948717948718,0.14762820512820513,13.534102564102565,,,,,,,28.330192307692307,56.51532051282051,1.3026923076923076,256.9846794871795,,0.0,0.0,1008.2767948717949,
2023-11-03,4.406150793650793,17.39526515151515,2.5131944444444443,0.37812500000000004,1.473263888888889,2.193506944444444,8.911493055555555,0.20260416666666667,13.787395833333333,,,,,,,26.954375,53.7834375,1.0203125,250.1615277777778,,0.0,0.0,1007.5864930555555,
2023-11-04,3.6152500000000005,8.66840909090909,2.4250694444444445,,0.7614930555555556,2.7064930555555553,8.8778125,0.16670138888888889,13.7603125,,,,,,,26.742743055555554,53.355069444444446,1.2934375,256.54288194444445,,0.0,0.0,1007.9127083333333,
2023-11-05,11.82578947368421,20.109861111111112,3.8635416666666664,,0.5864393939393939,3.4804166666666667,8.770416666666668,0.2295486111111111,13.7034375,,,,,,,27.085277777777776,54.03565972222222,1.307951388888889,207.32774305555554,,0.0,0.0,1009.2910069444443,
2023-11-06,7.307896825396826,33.27742063492063,3.2498809523809524,0.38766666666666666,1.0967857142857143,2.6032539682539686,8.915357142857143,0.17825396825396825,13.660277777777779,,,,,,,29.50238095238095,58.843849206349205,1.2175,266.41599206349207,,0.0,0.0,1009.7734523809524,
2023-11-07,10.888076923076921,32.93788461538462,2.1784615384615384,0.6583333333333333,1.5284615384615385,2.099615384615385,8.626923076923077,0.16628205128205129,13.727307692307692,,,,,,,28.461410256410257,56.79916666666667,1.0632692307692309,273.66878205128205,,0.0,0.0,1009.8223717948719,
2023-11-08,8.297391304347826,28.121628787878787,2.9024305555555556,0.41805555555555557,1.6241319444444444,2.154479166666667,8.884583333333333,0.13920138888888886,13.722708333333335,,,,,,,27.404492753623185,63.478115942028985,0.9314492753623188,218.79590579710143,,0.0,0.0,1010.2588043478261,
2023-11-09,11.315595238095238,32.73226851851852,2.8134027777777777,0.1,1.0363194444444443,2.5719444444444446,8.712013888888889,0.24402777777777776,13.545451388888887,,,,,,,28.210166666666666,58.415277777777774,1.0652777777777778,262.9626666666667,,0.0,0.0,1010.1506111111111,
2023-11-10,11.77037037037037,24.347156862745095,2.6488541666666667,0.24604166666666663,0.8767361111111112,2.6680555555555556,8.649375000000001,0.2456597222222222,13.769270833333332,,,,,,,26.523333333333337,52.91725694444444,0.9655902777777778,247.4964236111111,,0.0,0.0,1011.1111805555556,
2023-11-11,50.017028985507245,67.97221014492754,2.085069444444444,0.603,0.9321180555555556,2.5603124999999998,8.9253125,0.23493055555555556,13.700590277777778,,,,,,,27.140555555555554,54.15392361111111,1.2883680555555557,254.1087152777778,,0.0,0.0,1011.015763888889,
2023-11-12,76.28511363636363,134.58614583333335,2.7241666666666666,,0.4453125,3.235138888888889,8.786875,0.19138888888888891,13.5940625,,,,,,,28.38965277777778,56.64274305555555,1.1179861111111111,266.82475694444446,,0.0,0.0,1010.7040277777778,
2023-11-13,88.92829861111112,132.450625,2.272361111111111,,0.41281249999999997,3.0011805555555555,8.916284722222223,0.20319444444444446,13.753645833333332,,,,,,,27.769756944444442,55.41722222222222,1.0302777777777778,270.3517361111111,,0.0,0.0,1010.2071527777779,
2023-11-14,34.24775362318841,55.50105072463768,1.7688194444444445,0.24333333333333332,0.6196527777777777,2.7595138888888893,8.913159722222222,0.2602777777777778,13.641944444444443,,,,,,,26.5709375,53.02239583333333,1.2182291666666667,274.7896875,,0.0,0.0,1009.5272916666667,
2023-11-15,41.25782608695653,70.5901811594203,1.9739130434782608,0.3152777777777777,1.0152173913043476,2.343804347826087,8.77358695652174,0.23351449275362315,13.725326086956523,,,,,,,27.972862318840576,55.80684782608695,1.3252536231884058,272.2178623188406,,0.0,0.0,1009.2502173913044,
2023-11-16,31.97079861111111,59.23229166666667,2.3511805555555556,0.5498333333333333,0.8992708333333334,2.525590277777778,7.887118055555555,0.2411458333333333,13.674097222222223,,,,,,,28.352708333333336,56.561770833333334,1.0362152777777778,266.45375,,0.0,0.0,1009.9497569444444,
2023-11-17,26.277420634920635,51.4381746031746,2.268939393939394,0.6425,0.8774621212121212,2.5288636363636363,8.032083333333334,0.29011363636363635,13.567575757575758,,,,,,,28.712878787878786,57.28787878787878,1.101590909090909,249.4696212121212,,0.0,0.0,1009.9391287878788,
2023-11-18,10.655312499999999,28.309583333333332,2.092222222222222,0.33849999999999997,0.9455555555555555,2.4794444444444443,8.1221875,0.30621527777777774,13.537326388888888,,,,,,,28.393368055555555,56.65864583333333,1.0930555555555557,271.5332986111111,,0.0,2.48,1009.3919097222223,
2023-11-19,5.5031060606060604,13.229791666666667,2.687048611111111,,0.6829513888888888,2.723611111111111,8.019756944444444,0.11125,13.625763888888889,,,,,,,25.01291666666667,49.90013888888888,1.6128819444444444,259.37656250000003,,0.0,,1010.0025347222222,
2023-11-20,16.741875,40.25574074074074,2.6627083333333332,0.164375,0.7523863636363636,2.746493055555556,8.08361111111111,0.08920138888888889,13.637777777777778,,,,,,,27.354097222222222,54.58270833333333,1.0216319444444444,265.99927083333336,,0.0,52.99233333333334,1009.4984375,
2023-11-21,20.457534722222224,56.54802083333333,2.29625,0.49116666666666664,0.7903472222222222,2.639375,8.195277777777777,0.10385416666666665,13.668576388888889,,,,,,,28.73378472222222,57.31534722222222,0.9425,260.49621527777776,,0.0,14.652017543859648,1008.5999652777778,
2023-11-22,12.537916666666668,24.409236111111113,2.6225694444444443,0.4463888888888889,1.067951388888889,2.4749305555555554,8.250381944444444,0.14184027777777777,13.729479166666666,,,,,,,27.754340277777782,55.3709375,1.1174652777777778,256.5211111111111,,0.0,0.0,1008.3018055555555,
2023-11-23,8.192954545454546,27.291481481481483,2.762916666666667,,0.9427777777777778,2.586111111111111,8.126111111111111,0.23201388888888885,13.751805555555556,,,,,,,26.839027777777776,53.5403125,1.2407986111111111,269.5178472222222,,0.0,5.7908333333333335,1008.2856944444444,
2023-11-24,9.114027777777778,28.754895833333336,2.3621527777777778,0.21854166666666666,1.0873958333333333,2.453402777777778,8.053854166666667,0.26368055555555553,13.72704861111111,,,,,,,28.5059375,56.86743055555556,0.9721180555555556,262.28333333333336,,0.0,0.31305555555555553,1008.320625,
2023-11-25,8.491458333333332,23.972361111111113,1.9174305555555555,0.250625,0.905625,2.505625,8.156527777777777,0.25809027777777777,13.559236111111112,,,,,,,27.84107638888889,55.55190972222223,0.9492013888888889,268.4017361111111,,0.0,8.54388888888889,1009.363611111111,
2023-11-26,12.831493055555555,31.250555555555554,1.833611111111111,,0.7178472222222222,2.64,8.16795138888889,0.17229166666666665,13.564652777777779,,,,,,,27.874930555555554,55.62399305555556,0.9668055555555556,243.0989236111111,,0.0,11.337857142857144,1010.0574305555556,
2023-11-27,12.538090277777778,30.398333333333337,1.8994791666666666,0.3354166666666667,0.8669791666666667,2.5563541666666665,8.232534722222221,0.09697916666666667,13.606736111111111,,,,,,,27.269375,54.41315972222222,1.0074652777777777,266.38100694444444,,0.0,27.60625,1008.8102430555555,
2023-11-28,12.024479166666666,36.935520833333335,1.9550347222222222,0.11249999999999998,0.8238541666666667,2.595,8.292083333333332,0.1052083333333333,13.593194444444444,,,,,,,27.479131944444447,54.83871527777777,1.1285069444444444,277.5577083333333,,0.0,16.755416666666665,1008.1143402777778,
2023-11-29,9.60836956521739,22.758188405797103,1.9204861111111111,0.3331944444444444,0.9696180555555555,2.4935416666666668,8.320590277777777,0.12979166666666667,13.736354166666667,,,,,,,26.87951388888889,53.62756944444445,1.402951388888889,247.5079861111111,,0.0,9.108333333333333,1008.4240277777777,
2023-11-30,5.5225,8.756008771929825,1.976547619047619,0.165,0.8725,2.5583333333333336,8.202261904761905,0.1255952380952381,13.716626984126984,,,,,,,25.367222222222225,50.604305555555555,0.8261111111111111,265.475,,0.0,,1009.1125000000001,
2023-12-01,15.123333333333335,44.77690972222222,2.1927083333333335,0.06,0.6582291666666666,2.7781944444444444,8.165590277777778,0.18253472222222222,13.615381944444444,,,,,,,28.376858974358974,56.62615384615385,0.9258333333333333,281.5303846153846,,0.0,9.421000000000001,1007.5211538461538,
2023-12-02,32.544895833333335,70.92243055555555,2.300451388888889,,0.735451388888889,2.7265972222222223,8.455694444444445,0.13666666666666666,13.66559027777778,,,,,,,28.000416666666666,55.87638888888889,1.2479166666666666,276.3026736111111,,0.0,5.332631578947368,1006.5058680555557,
2023-12-03,24.827187499999997,44.373333333333335,2.4526388888888886,,0.7498958333333333,2.7389930555555555,8.505659722222221,0.11624999999999998,13.69920138888889,,,,,,,28.634722222222223,57.13496527777778,1.4159375,273.33510416666667,,0.0,7.755,1006.1853125000001,
2023-12-04,18.36825757575758,30.544886363636362,1.8123863636363637,0.10733333333333332,0.8035606060606061,2.5742045454545455,8.565833333333332,0.11295454545454545,13.585530303030303,,,,,,,30.01253787878788,59.86435606060606,1.6965151515151513,257.8374621212121,,0.0,0.0,1005.179696969697,
2023-12-05,14.473472222222222,26.405486111111113,1.7214930555555554,0.328125,0.766076388888889,2.5979513888888888,8.313298611111112,0.12305555555555554,13.664895833333333,,,,,,,30.591006944444445,61.01541666666666,1.6973263888888888,256.5109375,,0.0,0.0,1005.3604513888889,
2023-12-06,19.75170138888889,36.403055555555554,1.72625,0.26416666666666666,0.7231597222222222,2.6295486111111113,8.036319444444445,0.10947916666666664,13.645520833333334,,,,,,,30.467187499999998,60.77260416666667,1.6302777777777777,257.58184027777776,,0.0,0.0,1007.1914236111111,
2023-12-07,10.769891304347826,23.62532608695652,1.9821527777777777,0.22833333333333333,0.8723958333333334,2.548611111111111,8.051840277777778,0.11017361111111111,13.585416666666667,,,,,,,30.388020833333332,60.61392361111111,1.6304166666666668,257.0500347222222,,0.0,0.0,1008.1296527777778,
2023-12-08,13.366195652173914,42.04086956521739,2.082013888888889,0.258,0.9696527777777778,2.499409722222222,8.075208333333334,0.11618055555555555,13.756493055555554,,,,,,,29.35729166666667,58.57142361111111,1.2319444444444445,266.89427083333334,,0.0,0.0,1009.0885763888888,
2023-12-09,9.351493055555556,33.263576388888886,2.0414583333333334,0.2727777777777778,0.9176041666666667,2.536979166666667,8.081840277777777,0.15743055555555555,13.64295138888889,,,,,,,29.370763888888888,58.59361111111111,0.9181597222222222,261.2742361111111,,0.0,0.830625,1009.8992013888889,
2023-12-10,16.990972222222222,33.934444444444445,2.084513888888889,,0.7380555555555556,2.7064930555555553,8.131770833333333,0.10951388888888887,13.593298611111111,,,,,,,27.430833333333336,54.73954861111111,0.946875,253.66503472222223,,0.0,21.705833333333334,1009.2431944444444,
2023-12-11,23.656521739130437,48.98344202898551,1.614855072463768,0.17652777777777776,0.7489492753623189,2.634782608695652,8.16108695652174,0.14126811594202895,13.679311594202899,,,,,,,27.48967391304348,54.86228260869565,0.9120652173913043,270.21793478260867,,0.0,0.022500000000000003,1009.6507608695651,
2023-12-12,31.168159722222224,56.79354166666667,1.628090277777778,0.08888888888888886,0.702673611111111,2.680590277777778,8.357430555555554,0.09135416666666664,13.729409722222222,,,,,,,27.63222222222222,55.138020833333336,0.9463194444444444,262.79302083333334,,0.0,3.1392857142857142,1009.2529861111111,
2023-12-13,38.67795454545455,63.98719696969697,1.7401587301587302,0.5369444444444444,0.7829761904761904,2.6617063492063493,8.435151515151516,0.11587301587301584,13.567142857142859,,,,,,,26.808690476190474,53.48825396825397,0.9162698412698413,248.10265873015874,,0.0,0.0,1009.7319444444445,
2023-12-14,49.52260416666667,83.12359375,1.4196875,0.1708333333333333,0.79046875,2.6034375,8.222395833333334,0.08354166666666665,13.564583333333333,,,,,,,27.610052083333333,55.097239583333334,0.94640625,267.573125,,0.0,0.0,1010.5139583333333,
2023-12-15,51.60218750000001,78.75104166666667,1.579548611111111,0.12680555555555553,0.7801388888888888,2.627465277777778,8.27329861111111,0.1037847222222222,13.526041666666666,,,,,,,27.03736111111111,53.95055555555555,1.0290972222222223,269.2005208333333,,0.0,0.36680555555555555,1010.5792361111112,
2023-12-16,33.61489130434783,43.78119565217391,1.7284375,0.07,0.7362500000000001,2.687361111111111,8.1975,0.12618055555555555,13.5075,,,,,,,24.724097222222223,49.33045138888889,1.2209375,264.21166666666664,,0.0,0.0,1009.9669097222222,
2023-12-17,15.06638888888889,22.326597222222222,1.5799305555555556,,0.7404166666666666,2.6376041666666667,8.346284722222222,0.11003472222222221,13.522430555555557,,,,,,,24.880312500000002,49.62819444444444,1.5897222222222223,176.68729166666665,,0.0,,1008.5603124999999,
2023-12-18,25.97155797101449,33.301086956521736,2.2585416666666664,,0.5082222222222222,3.232361111111111,8.205243055555556,0.10402777777777776,13.494826388888889,,,,,,,24.295243055555556,48.462465277777774,1.493090277777778,216.26059027777777,,0.0,,1010.5790972222222,
2023-12-19,47.50625,56.6471875,4.013298611111111,,0.055,4.333576388888889,8.018020833333333,0.11850694444444443,13.773645833333333,,,,,,,24.90767361111111,49.69125,0.9231250000000001,275.6642708333333,,0.0,,1011.1362152777779,
2023-12-20,51.0271875,65.24729166666667,3.6022569444444446,,0.23613636363636364,3.988125,8.129791666666668,0.11211805555555555,13.758645833333333,,,,,,,25.584652777777777,51.03913194444445,1.0080555555555555,273.25434027777777,,0.0,,1011.0106597222222,
2023-12-21,58.58239130434782,68.40322463768116,2.8386956521739135,,0.5176515151515152,3.4430434782608694,8.156050724637682,0.11050724637681159,13.769963768115941,,,,,,,25.140869565217393,50.148369565217386,1.103586956521739,268.89409420289854,,0.0,,1011.038731884058,
2023-12-22,68.4890625,98.70635416666666,3.4562500000000003,,0.2159375,3.9300347222222225,8.185520833333333,0.09961805555555554,13.763125,,,,,,,26.908680555555552,53.6896875,0.9035069444444445,271.9921527777778,,0.0,43.912083333333335,1011.3459027777777,
2023-12-23,61.63666666666666,93.98458333333333,2.411701388888889,,0.5755769230769231,3.2642708333333332,8.146006944444444,0.10756944444444444,13.627638888888889,,,,,,,26.729409722222226,53.334062499999995,0.8723611111111111,273.7263541666667,,0.0,18.470357142857146,1012.269375,
2023-12-24,52.35854166666667,77.28458333333334,2.305034722222222,,0.3269927536231884,3.129131944444444,7.993541666666666,0.10305555555555555,13.521875,,,,,,,26.168263888888887,52.21083333333333,0.9191666666666666,268.94086805555554,,0.0,0.0,1012.9596527777777,
2023-12-25,33.51576388888889,58.392604166666665,2.2800694444444445,,0.3431746031746032,3.1850694444444443,8.075486111111111,0.09079861111111111,13.565243055555555,,,,,,,27.33548611111111,54.54774305555555,0.9680208333333334,234.03854166666667,,0.0,0.0,1012.1575347222223,
2023-12-26,17.060871212121214,40.75348484848485,1.7174621212121215,0.3475,0.5431439393939393,2.8288257575757574,8.15965909090909,0.09746212121212121,13.591174242424243,,,,,,,27.392689393939396,54.660037878787875,0.96625,242.27469696969695,,0.0,0.0,1012.012840909091,
2023-12-27,21.829895833333335,46.74583333333334,1.8210069444444443,0.1025,0.5727083333333333,2.821736111111111,8.2184375,0.1070486111111111,13.752222222222223,,,,,,,27.369375,54.615451388888886,1.0645138888888888,236.79909722222223,,0.0,0.0,1011.9451388888889,
2023-12-28,25.11,30.61,2.1075,,0.77,2.735,13.3675,0.0849999999999999,13.8825,,,,,,,26.3525,52.585,1.0625,273.6075,,0.0,0.0,1012.0775,
2023-12-29,19.7985,68.67854166666667,10.602564102564104,1.63,32.583333333333336,4.165320512820513,195.65,0.11570512820512821,13.499615384615385,,,,,,,28.980384615384615,57.8323717948718,0.9543589743589743,212.9025,,0.0,0.0,1011.0126923076924,
2023-12-30,18.211875000000003,45.211875,3.9115277777777777,0.09527777777777775,0.6865277777777777,4.292847222222222,2.5371969696969696,0.11545138888888888,13.57829861111111,,,,,,,27.936319444444447,55.74861111111111,0.9834375,232.92993055555556,,0.0,0.0315,1011.3173958333333,
2023-12-31,27.209166666666665,52.936770833333334,2.7971874999999997,,0.40785714285714286,3.427951388888889,3.8114930555555553,0.13336805555555556,13.7203125,,,,,,,27.485,54.84586805555555,0.9113888888888889,250.80270833333336,,0.0,0.0,1011.0910069444444,
