Timestamp,PM2.5 (µg/m³),PM10 (µg/m³),NO (µg/m³),NO2 (µg/m³),NOx (ppb),NH3 (µg/m³),SO2 (µg/m³),CO (mg/m³),Ozone (µg/m³),Benzene (µg/m³),Toluene (µg/m³),Xylene (µg/m³),O Xylene (µg/m³),Eth-Benzene (µg/m³),MP-Xylene (µg/m³),AT (°C),RH (%),WS (m/s),WD (deg),RF (mm),TOT-RF (mm),SR (W/mt2),BP (mmHg),VWS (m/s)
2024-01-01,42.64,67.29,2.33,,0.25,3.23,3.74,0.16,13.54,,,,,,,27.24,54.36,0.87,251.58,,0.0,0.0,1011.56,
2024-01-02,33.58,59.1,1.89,,0.47,2.97,4.0,0.22,13.56,,,,,,,27.28,54.44,0.83,260.25,,0.0,1.43,1010.69,
2024-01-03,28.51,57.95,1.73,0.1,0.55,2.84,4.15,0.21,13.65,,,,,,,27.67,55.22,0.85,256.33,,0.0,0.0,1009.86,
2024-01-04,19.33,46.72,1.94,0.06,0.6,2.84,4.13,0.16,13.8,,,,,,,28.51,56.88,0.89,271.51,,0.0,0.0,1010.07,
2024-01-05,18.1,42.35,2.28,,0.39,3.07,4.25,0.22,13.81,,,,,,,27.78,55.44,0.95,269.85,,0.0,0.0,1010.37,
2024-01-06,21.1,55.3,1.74,0.18,0.53,2.82,13.15,0.16,13.54,,,,,,,28.78,57.43,0.83,259.6,,0.0,0.0,1009.89,
2024-01-07,8.53,20.64,3.47,,0.06,3.79,2.84,0.08,13.64,,,,,,,25.85,51.57,0.96,277.62,,0.0,0.0,1010.61,
2024-01-08,6.24,38.55,1.77,,0.76,2.66,4.26,0.33,13.73,,,,,,,28.36,56.6,0.95,258.59,,0.0,0.0,1011.12,
2024-01-09,16.18,26.29,2.4,,0.49,3.04,5.08,0.21,13.61,,,,,,,25.07,50.02,1.33,218.93,,0.0,34.62,1010.61,
2024-01-10,30.16,56.08,2.03,0.1,0.6,2.9,5.06,0.26,13.6,,,,,,,26.2,52.28,0.94,256.41,,0.0,1.78,1010.52,
2024-01-11,31.77,61.08,2.04,0.33,0.82,2.71,5.04,0.58,13.79,,,,,,,26.8,53.48,0.93,239.47,,0.0,0.0,1011.19,
2024-01-12,29.37,60.04,1.73,0.15,0.79,2.66,5.03,0.39,13.63,,,,,,,27.14,54.16,0.92,248.09,,0.0,0.0,1010.99,
2024-01-13,40.38,70.66,1.93,0.13,0.78,2.71,5.01,0.44,13.65,,,,,,,27.06,54.0,0.89,262.95,,0.0,0.0,1012.15,
2024-01-14,73.38,104.85,1.9,,0.73,2.74,4.98,0.25,13.75,,,,,,,27.01,53.89,0.84,267.56,,0.0,0.0,1011.64,
2024-01-15,67.38,97.07,1.88,,0.66,2.8,5.03,0.1,13.67,,,,,,,26.65,53.18,0.83,271.18,,0.0,0.0,1011.33,
2024-01-16,46.73,76.49,2.23,,0.88,2.67,5.07,0.09,13.71,,,,,,,26.68,53.23,0.95,276.07,,0.0,0.0,1010.51,
2024-01-17,18.7,54.6,1.45,0.06,0.73,2.65,5.29,0.18,13.75,,,,,,,28.89,57.65,0.83,284.14,,0.0,0.0,1009.45,
2024-01-18,13.51,40.5,1.69,,0.78,2.64,4.99,0.28,13.6,,,,,,,27.24,54.35,0.81,273.69,,0.0,0.0,1010.0,
2024-01-19,9.81,32.01,1.66,0.08,0.83,2.6,5.09,0.29,13.63,,,,,,,26.72,53.32,0.77,256.68,,0.0,5.03,1010.52,
2024-01-20,20.16,51.22,1.85,,0.82,2.64,5.01,0.31,13.57,,,,,,,27.36,54.58,0.86,270.19,,0.0,0.0,1011.55,
2024-01-21,22.81,50.64,1.78,,0.76,2.69,5.18,0.26,13.73,,,,,,,28.0,55.88,0.81,250.06,,0.0,0.0,1011.58,
2024-01-22,23.2,51.45,1.62,0.04,0.78,2.62,5.13,0.28,13.7,,,,,,,27.28,54.44,0.85,253.17,,0.0,0.0,1012.41,
2024-01-23,24.6,70.76,1.67,,0.75,2.67,5.06,0.3,13.62,,,,,,,27.03,53.94,0.92,271.78,,0.0,0.0,1012.43,
2024-01-24,30.77,70.92,1.6,0.19,0.8,2.63,5.12,0.33,13.61,,,,,,,27.15,54.16,0.97,271.88,,0.0,0.0,1012.07,
2024-01-25,28.49,65.19,1.85,,0.78,2.67,5.13,0.29,13.83,,,,,,,27.03,53.93,0.9,270.67,,0.0,0.0,1012.62,
2024-01-26,26.07,55.45,1.65,,0.75,2.67,5.06,0.28,13.65,,,,,,,26.7,53.27,0.93,253.35,,0.0,0.0,1013.89,
2024-01-27,24.12,51.93,1.44,,0.69,2.65,4.97,0.29,13.65,,,,,,,26.88,53.63,0.95,264.73,,0.0,0.0,1013.86,
2024-01-28,,49.66,1.51,,0.64,2.72,5.1,0.27,13.61,,,,,,,27.18,54.23,0.94,245.39,,0.0,0.0,1013.5,
2024-01-29,34.32,72.09,1.32,0.15,0.71,2.64,5.14,0.26,13.56,,,,,,,26.94,53.75,0.94,229.57,,0.0,0.0,1012.98,
2024-01-30,32.49,69.02,1.34,0.09,0.71,2.66,5.05,0.26,13.66,,,,,,,27.45,54.75,0.88,239.14,,0.0,0.0,1012.04,
2024-01-31,20.71,51.59,1.5,0.08,0.73,2.63,5.11,0.22,13.6,,,,,,,28.11,56.07,0.96,256.8,,0.0,0.0,1012.14,
2024-02-01,12.5,41.81,1.47,,0.83,2.6,5.14,0.31,13.56,,,,,,,29.74,59.29,0.81,230.83,,0.0,0.0,1011.31,
2024-02-02,11.06,38.81,1.11,,0.83,2.47,5.13,0.29,13.54,,,,,,,33.38,66.53,0.74,174.79,,0.0,0.0,1010.63,
2024-02-03,18.27,50.4,1.19,0.17,0.86,2.48,4.93,0.18,13.53,,,,,,,32.6,64.94,1.05,219.23,,0.0,0.0,1010.69,
2024-02-04,14.78,39.67,,,,,5.04,,13.66,,,,,,,,,,,,0.0,,,
2024-02-05,14.37,44.18,1.46,0.22,0.96,2.48,5.0,0.19,13.65,,,,,,,29.1,58.04,1.06,248.54,,0.0,0.0,1013.53,
2024-02-06,30.81,62.05,1.51,0.07,0.72,2.68,4.94,0.21,13.57,,,,,,,27.19,54.25,0.97,261.21,,0.0,0.0,1013.33,
2024-02-07,35.82,67.13,1.5,0.03,0.72,2.67,5.21,0.22,13.61,,,,,,,27.08,54.04,1.02,259.77,,0.0,0.0,1013.13,
2024-02-08,21.42,53.35,1.57,0.01,0.74,2.66,5.16,0.17,13.71,,,,,,,27.12,54.12,0.92,260.35,,0.0,0.0,1012.15,
2024-02-09,27.6,58.3,1.5,,0.75,2.64,5.26,0.31,13.71,,,,,,,27.41,54.7,0.91,239.03,,0.0,0.0,1012.65,
2024-02-10,44.25,78.21,1.41,,0.72,2.66,5.03,0.36,13.69,,,,,,,28.04,55.96,0.95,232.86,,0.0,0.0,1013.82,
2024-02-11,47.69,86.51,1.42,,0.66,2.7,5.09,0.31,13.6,,,,,,,27.91,55.7,1.09,237.41,,0.0,0.0,1013.95,
2024-02-12,26.33,59.13,1.4,0.09,0.69,2.66,5.29,0.27,13.48,,,,,,,27.2,54.27,1.07,245.1,,0.0,0.0,1013.45,
2024-02-13,18.44,49.74,1.42,0.13,0.73,2.64,5.15,0.19,13.59,,,,,,,27.88,55.62,1.08,220.63,,0.0,0.0,1012.58,
2024-02-14,23.67,54.86,1.25,0.32,0.69,2.62,5.56,0.18,13.65,,,,,,,28.17,56.22,1.06,212.89,,0.0,0.0,1012.0,
2024-02-15,28.06,61.36,0.56,,0.2,2.62,5.64,0.2,13.47,,,,,,,27.82,55.51,1.11,212.29,,0.0,0.0,1011.86,
2024-02-16,28.3,60.8,0.55,,0.19,2.63,5.64,0.22,13.66,,,,,,,28.27,56.42,1.08,217.31,,0.0,0.0,1012.12,
2024-02-17,26.99,62.47,0.55,,0.18,2.62,5.64,0.17,13.65,,,,,,,28.22,56.32,1.03,218.81,,0.0,0.0,1011.3,
2024-02-18,29.58,59.47,0.5,,0.14,2.63,5.63,0.15,13.6,,,,,,,28.11,56.08,0.88,234.69,,0.0,0.0,1010.7,
2024-02-19,31.44,63.74,0.56,0.09,0.19,2.62,5.72,0.18,13.66,,,,,,,28.67,57.19,0.86,238.85,,0.0,0.0,1011.06,
2024-02-20,30.48,64.72,0.55,,0.24,2.63,5.61,0.18,13.71,,,,,,,28.94,57.72,0.85,244.16,,0.0,0.0,1010.98,
2024-02-21,40.92,78.51,0.56,0.12,0.46,2.61,5.71,0.08,13.58,,,,,,,28.88,57.61,0.96,238.88,,0.0,0.0,1010.19,
2024-02-22,37.13,62.67,0.93,,0.44,2.64,5.75,0.07,13.72,,,,,,,29.92,59.69,1.22,252.66,,0.0,0.0,1010.15,
2024-02-23,28.57,50.4,0.99,,0.43,2.64,5.44,0.08,13.71,,,,,,,30.26,60.36,1.29,253.67,,0.0,0.0,1009.55,
2024-02-24,24.89,49.92,0.54,,0.19,2.63,5.57,0.07,13.59,,,,,,,29.39,58.62,1.13,262.27,,0.0,0.0,1009.38,
2024-02-25,27.16,55.88,0.52,,0.14,2.63,6.0,0.08,13.64,,,,,,,29.0,57.84,0.9,224.11,,0.0,0.97,1008.89,
2024-02-26,24.96,53.44,0.72,,0.31,2.62,5.88,0.07,13.58,,,,,,,28.95,57.77,1.13,209.89,,0.0,0.0,1009.43,
2024-02-27,23.13,53.79,0.77,0.16,0.38,2.62,7.81,0.07,13.59,,,,,,,28.75,57.37,1.21,205.06,,0.0,0.0,1010.16,
2024-02-28,23.83,58.02,0.5,0.04,0.22,2.63,6.05,0.08,13.76,,,,,,,28.45,56.76,1.13,202.82,,0.0,0.0,1009.64,
2024-02-29,21.17,65.46,0.17,,0.0,2.62,6.46,0.08,13.72,,,,,,,28.09,56.04,1.04,227.38,,0.0,0.0,1010.07,
2024-03-01,30.06,65.73,0.23,0.03,0.26,2.63,5.99,0.08,13.78,,,,,,,27.97,55.83,0.96,245.66,,0.0,0.0,1011.29,
2024-03-02,40.09,72.9,0.37,0.24,0.22,2.62,6.03,0.09,13.74,,,,,,,28.38,56.6,0.92,257.83,,0.0,0.0,1011.04,
2024-03-03,41.06,75.33,0.25,,0.03,2.64,6.21,0.09,13.76,,,,,,,28.59,57.02,0.87,250.94,,0.0,0.0,1010.12,
2024-03-04,39.02,73.32,0.37,0.11,0.15,2.62,6.11,0.08,13.63,,,,,,,28.14,56.13,0.96,258.73,,0.0,0.0,1010.01,
2024-03-05,32.15,64.57,0.26,0.09,0.21,2.63,6.23,0.08,13.62,,,,,,,28.38,56.6,0.95,254.4,,0.0,0.0,1010.03,
2024-03-06,32.56,67.43,0.26,0.01,0.15,2.63,5.89,0.08,13.61,,,,,,,28.79,57.42,1.06,263.04,,0.0,0.0,1010.21,
2024-03-07,29.34,65.35,0.34,,0.21,2.62,5.99,0.09,13.68,,,,,,,29.16,58.16,1.02,249.03,,0.0,0.0,1009.34,
2024-03-08,27.15,50.16,0.34,,0.19,2.63,6.0,0.08,13.59,,,,,,,30.66,61.13,1.17,258.46,,0.0,0.0,1009.89,
2024-03-09,24.96,49.89,0.48,,0.16,2.61,6.22,0.07,13.7,,,,,,,34.5,68.76,1.36,232.2,,0.0,0.0,1008.51,
2024-03-10,,,,,,,,,,,,,,,,,,,,,0.0,,,
2024-03-11,39.58,82.17,0.5,,0.15,2.63,6.09,0.1,13.68,,,,,,,30.98,61.79,1.11,248.15,,0.0,0.0,1012.86,
2024-03-12,32.15,73.04,0.4,0.07,0.17,2.63,5.86,0.08,13.63,,,,,,,29.93,59.69,0.92,252.06,,0.0,0.0,1011.99,
2024-03-13,37.25,72.05,0.5,,0.4,2.63,5.42,0.13,13.65,,,,,,,30.73,61.28,0.94,257.92,,0.0,0.0,1010.94,
2024-03-14,41.07,74.94,0.69,,0.3,2.62,5.85,0.2,13.66,,,,,,,32.13,64.08,1.27,244.35,,0.0,0.0,1009.38,
2024-03-15,42.45,77.22,0.56,,0.18,2.63,6.0,0.3,13.7,,,,,,,30.46,60.75,1.16,250.8,,0.0,0.0,1009.46,
2024-03-16,39.0,71.37,0.52,,0.21,2.62,5.9,0.19,13.72,,,,,,,30.25,60.34,1.2,254.39,,0.0,0.0,1009.77,
2024-03-17,20.02,60.72,0.53,,0.15,2.64,5.86,0.1,13.57,,,,,,,30.4,60.63,0.97,229.2,,0.0,0.0,1010.16,
2024-03-18,15.46,58.44,0.56,,0.2,2.62,5.91,0.08,13.53,,,,,,,29.67,59.16,1.07,249.16,,0.0,0.0,1010.03,
2024-03-19,28.6,65.89,0.88,0.12,0.58,2.62,7.26,0.09,13.67,,,,,,,30.22,60.27,0.8,216.81,,0.0,0.0,1009.38,
2024-03-20,41.64,81.75,,,,2.63,6.06,0.19,13.68,,,,,,,30.03,59.9,1.08,255.6,,0.0,0.0,1009.2,
2024-03-21,23.66,53.19,0.39,,0.01,2.63,6.37,0.16,13.64,,,,,,,29.46,58.78,1.28,217.25,,0.0,0.0,1008.92,
2024-03-22,24.32,52.72,,,,2.61,6.25,0.08,13.68,,,,,,,30.56,60.96,1.3,207.97,,0.0,5.04,1007.44,
2024-03-23,32.01,67.06,,,,2.64,6.26,0.09,13.71,,,,,,,30.75,61.32,1.16,238.5,,0.0,5.83,1007.59,
2024-03-24,26.25,58.06,,,,2.63,6.12,0.09,13.94,,,,,,,30.52,60.87,1.06,241.34,,0.0,0.0,1009.29,
2024-03-25,23.37,56.39,1.44,,0.75,2.58,6.16,0.15,13.42,,,,,,,29.81,59.46,1.02,248.63,,0.0,0.0,1009.57,
2024-03-26,20.04,47.72,0.2,,0.03,2.63,6.19,0.11,13.58,,,,,,,30.27,60.37,1.0,244.24,,0.0,0.0,1010.24,
2024-03-27,21.11,45.73,0.74,0.38,0.99,2.5,6.16,0.1,13.63,,,,,,,30.41,60.66,1.27,217.52,,0.0,0.08,1011.41,
2024-03-28,19.74,45.7,0.9,0.18,0.57,2.47,6.26,0.12,13.6,,,,,,,30.52,60.87,1.05,219.08,,0.0,0.0,1009.75,
2024-03-29,23.79,48.95,0.78,,0.45,2.61,6.39,0.18,13.71,,,,,,,31.43,62.69,1.07,242.6,,0.0,1.3,1009.18,
2024-03-30,20.43,50.9,1.01,0.44,0.62,2.49,6.32,0.1,13.74,,,,,,,31.87,63.57,1.04,242.21,,0.0,0.0,1009.98,
2024-03-31,19.01,29.52,1.34,,0.65,2.56,6.39,0.09,13.56,,,,,,,31.65,63.14,1.18,229.37,,0.0,0.0,1010.47,
2024-04-01,14.71,22.7,1.47,0.21,0.75,2.58,6.29,0.1,13.73,,,,,,,31.66,63.14,1.16,236.03,,0.0,0.0,1008.34,
2024-04-02,15.51,19.88,1.56,0.03,0.75,2.59,6.47,0.1,13.75,,,,,,,32.06,63.96,1.4,238.92,,0.0,0.0,1006.69,
2024-04-03,13.08,19.28,1.73,,0.84,2.58,6.1,0.1,13.69,,,,,,,31.6,63.03,1.39,236.97,,0.0,0.0,1007.51,
2024-04-04,11.02,15.03,1.78,,0.85,2.59,6.34,0.09,13.79,,,,,,,31.86,63.54,1.18,241.02,,0.0,0.0,1007.73,
2024-04-05,17.46,33.73,1.75,0.2,0.87,2.58,6.28,0.08,13.56,,,,,,,32.37,64.56,1.4,235.4,,0.0,0.0,1007.08,
2024-04-06,19.28,30.62,1.92,,0.91,2.62,6.25,0.08,13.73,,,,,,,32.28,64.37,1.24,235.08,,0.0,0.0,1006.38,
2024-04-07,19.13,32.7,2.02,,0.83,2.66,6.4,0.08,13.73,,,,,,,32.35,64.52,1.47,240.48,,0.0,0.0,1006.11,
2024-04-08,21.51,38.51,1.81,,0.85,2.61,6.35,0.09,13.59,,,,,,,32.55,64.92,1.15,234.72,,0.0,0.0,1006.94,
2024-04-09,26.56,52.67,2.24,,1.12,2.47,6.23,0.11,13.78,,,,,,,31.48,62.78,1.18,173.54,,0.0,0.0,1007.6,
2024-04-10,37.3,67.0,1.97,0.23,1.12,2.44,6.24,0.09,13.71,,,,,,,31.26,62.36,1.22,189.04,,0.0,0.0,1007.76,
2024-04-11,21.05,41.15,1.77,,0.88,2.59,6.6,0.08,13.76,,,,,,,32.7,65.21,1.09,105.64,,0.0,0.0,1007.76,
2024-04-12,12.89,33.83,1.44,0.01,0.79,2.56,6.56,0.08,13.69,,,,,,,31.44,62.71,1.1,157.37,,0.0,0.0,1008.16,
2024-04-13,20.36,38.95,1.42,0.02,0.74,2.57,6.55,0.07,13.54,,,,,,,31.86,63.54,1.09,168.17,,0.0,0.0,1008.08,
2024-04-14,23.44,36.19,1.43,,0.71,2.61,6.53,0.08,13.6,,,,,,,31.43,62.68,1.25,160.16,,0.0,0.0,1008.13,
2024-04-15,18.81,29.87,0.98,0.19,0.55,2.56,6.53,0.09,13.64,,,,,,,29.96,59.8,1.01,188.95,,0.0,3.62,1008.54,
2024-04-16,15.98,39.46,1.09,0.27,0.62,2.54,6.78,0.08,13.64,,,,,,,31.65,63.12,1.14,231.58,,0.0,11.0,1007.99,
2024-04-17,17.84,22.76,1.03,0.13,0.55,2.59,6.83,0.08,13.74,,,,,,,32.03,63.89,1.43,246.41,,0.0,0.0,1007.23,
2024-04-18,8.32,17.21,0.95,,0.47,2.63,6.73,0.07,13.66,,,,,,,32.0,63.83,1.35,226.74,,0.0,0.0,1006.99,
2024-04-19,21.97,35.38,1.6,,0.73,2.61,6.8,0.07,13.7,,,,,,,30.33,60.54,1.39,228.77,,0.0,0.0,1005.71,
2024-04-20,26.19,38.57,0.95,0.12,0.64,2.61,7.01,0.06,13.53,,,,,,,35.97,71.71,1.02,201.34,,0.0,0.0,1003.75,
2024-04-21,21.45,42.06,0.59,,0.19,2.63,6.66,0.1,13.53,,,,,,,33.49,66.79,0.85,221.44,,0.0,0.0,1004.69,
2024-04-22,25.93,42.3,0.78,0.08,0.39,2.61,6.75,0.08,13.77,,,,,,,33.07,65.95,0.93,224.51,,0.0,0.0,1005.88,
2024-04-23,27.4,46.18,0.69,,0.33,2.62,6.65,0.09,13.61,,,,,,,32.77,65.36,0.99,230.16,,0.0,0.0,1005.16,
2024-04-24,23.36,41.42,0.49,,0.32,2.63,6.84,0.08,13.62,,,,,,,32.99,65.8,1.28,236.0,,0.0,0.0,1005.04,
2024-04-25,27.52,45.29,0.56,,0.19,2.63,6.76,0.09,13.6,,,,,,,32.73,65.28,1.33,239.76,,0.0,0.0,1005.21,
2024-04-26,28.44,53.4,0.63,,0.25,2.62,6.78,0.09,13.74,,,,,,,32.82,65.46,1.15,231.13,,0.0,0.0,1004.94,
2024-04-27,23.72,56.66,0.58,,0.18,2.61,6.85,0.12,13.68,,,,,,,32.67,65.16,1.05,201.27,,0.0,0.0,1005.24,
2024-04-28,14.0,33.09,0.51,,0.14,2.62,7.06,0.09,13.63,,,,,,,33.53,66.88,0.56,202.14,,0.0,0.0,1005.54,
2024-04-29,11.8,31.69,0.65,,0.26,2.62,6.77,0.08,13.63,,,,,,,33.53,66.85,0.71,213.72,,0.0,0.0,1006.63,
2024-04-30,11.37,20.78,0.81,,0.37,2.62,6.72,0.08,13.68,,,,,,,33.03,65.88,1.02,226.19,,0.0,0.0,1005.98,
2024-05-01,8.9,19.42,0.82,,0.38,2.64,6.97,0.09,13.55,,,,,,,33.08,65.97,1.39,221.21,,0.0,0.0,1003.75,
2024-05-02,21.41,44.08,0.93,,0.48,2.62,6.85,0.07,13.69,,,,,,,33.46,66.73,1.09,217.98,,0.0,0.0,1004.0,
2024-05-03,21.38,42.94,0.94,,0.49,2.62,6.83,0.09,13.74,,,,,,,32.66,65.14,1.3,224.32,,0.0,0.0,1005.09,
2024-05-04,21.06,42.72,0.92,,0.47,2.62,6.81,0.09,13.7,,,,,,,33.3,66.42,1.18,223.92,,0.0,0.0,1005.34,
2024-05-05,,47.37,0.57,,0.18,2.62,6.88,0.08,13.52,,,,,,,33.77,67.34,1.2,217.33,,0.0,0.0,1004.08,
2024-05-06,17.36,48.34,0.75,,0.39,2.63,7.0,0.1,13.53,,,,,,,33.42,66.65,1.16,225.5,,0.0,0.0,1004.68,
2024-05-07,18.17,54.16,1.1,,0.6,2.64,6.81,0.12,13.73,,,,,,,33.7,67.2,1.08,224.14,,0.0,0.0,1005.73,
2024-05-08,20.38,63.54,1.01,,0.56,2.61,6.83,0.11,13.55,,,,,,,33.72,67.25,0.8,200.89,,0.0,0.0,1005.78,
2024-05-09,22.29,49.05,1.07,,0.59,2.62,6.62,0.12,13.73,,,,,,,31.68,63.18,0.75,218.01,,0.0,0.0,1005.52,
2024-05-10,14.41,29.08,0.82,,0.38,2.64,6.78,0.12,13.72,,,,,,,31.63,63.09,0.89,229.72,,0.0,11.82,1006.52,
2024-05-11,11.07,25.63,0.73,,0.3,2.63,6.85,0.09,13.71,,,,,,,31.37,62.57,1.3,244.12,,0.0,2.32,1007.4,
2024-05-12,8.4,26.0,0.2,,0.17,2.63,7.21,0.09,13.68,,,,,,,30.62,61.09,1.38,250.53,,0.0,0.0,1007.41,
2024-05-13,5.94,37.89,0.48,,0.24,2.62,7.51,0.09,13.57,,,,,,,31.42,62.67,1.29,249.7,,0.0,11.51,1006.37,
2024-05-14,4.05,20.22,0.35,,0.1,2.62,7.07,0.23,13.61,,,,,,,29.82,59.48,1.17,246.5,,0.0,4.41,1006.49,
2024-05-15,9.34,33.83,0.2,,0.01,2.63,7.12,0.16,13.73,,,,,,,29.92,59.68,1.21,255.51,,0.0,2.0,1006.69,
2024-05-16,12.86,25.47,0.07,,,2.64,7.3,0.19,13.65,,,,,,,28.47,56.8,1.16,261.58,,0.0,,1006.97,
2024-05-17,7.84,19.94,0.06,,,2.63,7.4,0.19,13.52,,,,,,,27.71,55.3,1.24,269.12,,0.0,284.88,1006.1,
2024-05-18,10.47,29.47,0.12,,,2.64,7.58,0.15,13.65,,,,,,,30.32,60.47,1.24,258.39,,0.0,107.88,1004.19,
2024-05-19,14.65,34.95,,,,2.64,7.69,0.19,13.6,,,,,,,28.89,57.63,1.07,250.86,,0.0,41.98,1002.68,
2024-05-20,5.58,19.2,0.08,,,2.62,7.62,0.2,13.73,,,,,,,28.66,57.18,1.35,253.6,,0.0,7.1,1002.65,
2024-05-21,6.72,24.62,,,,2.63,7.76,0.21,13.75,,,,,,,30.25,60.34,1.6,255.82,,0.0,31.59,1001.96,
2024-05-22,8.41,28.82,0.1,,,2.62,7.72,0.27,13.58,,,,,,,30.01,59.86,1.59,256.14,,0.0,23.52,1000.97,
2024-05-23,4.78,14.78,0.22,,0.07,2.63,7.66,0.15,13.7,,,,,,,29.95,59.76,1.82,246.38,,0.0,0.81,1000.76,
2024-05-24,5.96,18.89,0.25,,0.04,2.63,7.77,0.1,13.75,,,,,,,31.17,62.17,2.16,235.05,,0.0,0.0,1000.09,
2024-05-25,8.05,20.85,0.21,,0.03,2.63,7.58,0.12,13.67,,,,,,,30.51,60.87,1.74,248.93,,0.0,0.0,1000.69,
2024-05-26,13.1,31.59,0.18,,0.04,2.64,7.54,0.11,13.54,,,,,,,30.96,61.77,1.46,249.07,,0.0,0.0,1001.78,
2024-05-27,14.6,32.77,0.38,,0.14,2.62,7.33,0.1,13.55,,,,,,,31.44,62.71,1.51,240.34,,0.0,0.0,1001.92,
2024-05-28,8.7,32.3,0.49,,0.24,2.63,7.42,0.09,13.71,,,,,,,32.58,64.97,1.65,248.09,,0.0,0.0,1002.22,
2024-05-29,6.45,27.43,0.62,,0.22,2.64,7.33,0.11,13.8,,,,,,,32.29,64.42,1.28,241.57,,0.0,0.0,1001.92,
2024-05-30,7.03,30.26,0.66,,0.26,2.62,7.36,0.08,13.81,,,,,,,33.04,65.9,1.33,240.6,,0.0,0.0,1002.14,
2024-05-31,11.12,31.23,0.76,,0.35,2.62,7.23,0.1,13.75,,,,,,,32.67,65.16,1.21,235.46,,0.0,0.0,1002.42,
2024-06-01,15.41,38.65,0.81,,0.37,2.63,7.18,0.1,13.77,,,,,,,32.49,64.81,1.15,241.11,,0.0,0.0,1003.01,
2024-06-02,32.56,55.37,0.74,,0.32,2.63,7.18,0.11,13.59,,,,,,,32.63,65.07,1.07,241.57,,0.0,0.0,1004.02,
2024-06-03,17.02,35.18,0.68,,0.28,2.61,7.12,0.08,13.79,,,,,,,31.88,63.57,1.24,239.59,,0.0,0.0,1005.26,
2024-06-04,11.47,33.94,0.56,,0.19,2.61,7.34,0.09,13.75,,,,,,,31.39,62.63,1.74,235.1,,0.0,0.0,1006.02,
2024-06-05,7.35,30.06,0.66,,0.25,2.63,7.09,0.08,13.73,,,,,,,30.88,61.61,1.99,232.01,,0.0,0.0,1006.62,
2024-06-06,4.57,19.42,0.49,,0.14,2.62,7.32,0.08,13.55,,,,,,,30.28,60.42,1.94,237.63,,0.0,0.83,1007.11,
2024-06-07,3.28,11.96,0.5,,0.21,2.62,7.41,0.08,13.75,,,,,,,29.34,58.54,2.18,238.91,,0.0,1.5,1006.23,
2024-06-08,4.54,19.89,0.48,,0.32,2.62,7.6,0.07,13.57,,,,,,,30.11,60.09,2.7,229.92,,0.0,0.0,1006.05,
2024-06-09,8.29,30.2,0.24,,0.04,2.63,7.4,0.08,13.63,,,,,,,30.99,61.82,2.05,236.35,,0.0,0.0,1005.36,
2024-06-10,9.77,44.01,0.48,,0.13,2.64,7.89,0.09,13.65,,,,,,,31.25,62.32,1.97,238.75,,0.0,0.0,1005.77,
2024-06-11,9.67,30.45,0.51,,0.24,2.62,7.36,0.07,13.62,,,,,,,31.51,62.85,1.85,239.96,,0.0,0.0,1005.81,
2024-06-12,7.85,26.36,0.55,,0.17,2.64,7.12,0.08,13.73,,,,,,,31.39,62.6,1.96,239.9,,0.0,0.0,1006.93,
2024-06-13,7.97,32.35,0.41,,0.15,2.62,7.44,0.08,13.71,,,,,,,31.33,62.49,1.56,243.02,,0.0,0.0,1006.58,
2024-06-14,10.12,35.91,0.49,,0.19,2.64,7.49,0.08,13.73,,,,,,,31.92,63.66,1.42,239.53,,0.0,0.0,1005.11,
2024-06-15,11.62,36.02,0.61,,0.21,2.63,7.46,0.08,13.77,,,,,,,31.88,63.58,1.73,242.84,,0.0,0.0,1004.51,
2024-06-16,11.92,32.4,0.51,,0.15,2.63,7.45,0.08,13.8,,,,,,,31.77,63.37,1.49,239.15,,0.0,0.0,1004.77,
2024-06-17,10.8,31.43,0.34,,0.1,2.63,7.36,0.08,13.68,,,,,,,31.43,62.7,1.7,235.38,,0.0,0.0,1005.11,
2024-06-18,7.26,30.83,0.56,,0.31,2.61,7.73,0.08,13.62,,,,,,,31.09,62.01,2.02,231.78,,0.0,0.0,1005.16,
2024-06-19,8.3,27.26,0.59,,0.21,2.63,7.34,0.08,13.62,,,,,,,30.55,60.96,2.01,242.43,,0.0,0.0,1004.65,
2024-06-20,7.9,21.95,0.52,,0.15,2.63,7.46,0.09,13.57,,,,,,,31.55,62.92,1.87,228.98,,0.0,0.0,1004.26,
2024-06-21,7.69,25.81,0.49,,0.13,2.61,7.48,0.08,13.6,,,,,,,31.85,63.51,1.78,252.09,,0.0,0.0,1003.97,
2024-06-22,8.71,21.33,0.49,,0.15,2.64,7.58,0.1,13.77,,,,,,,31.03,61.9,1.74,247.82,,0.0,0.0,1002.38,
2024-06-23,5.38,18.14,0.6,,0.2,2.63,7.53,0.08,13.8,,,,,,,33.14,66.1,2.25,234.85,,0.0,0.0,1001.7,
2024-06-24,5.76,23.34,0.66,,0.25,2.64,7.45,0.08,13.73,,,,,,,31.65,63.13,1.96,238.25,,0.0,0.0,1002.03,
2024-06-25,6.15,22.37,0.43,,0.14,2.63,7.69,0.09,13.66,,,,,,,30.69,61.21,2.13,242.58,,0.0,0.0,1002.16,
2024-06-26,4.86,17.03,0.55,,0.17,2.63,7.58,0.1,13.57,,,,,,,30.97,61.77,2.1,254.26,,0.0,0.0,1002.46,
2024-06-27,6.48,23.3,0.54,,0.16,2.64,7.44,0.09,13.58,,,,,,,30.91,61.64,1.79,253.5,,0.0,0.0,1003.7,
2024-06-28,6.13,27.04,0.45,,0.19,2.62,7.49,0.09,13.79,,,,,,,31.13,62.09,1.75,238.36,,0.0,0.0,1004.4,
2024-06-29,6.27,28.16,0.55,,0.19,2.63,7.24,0.09,13.77,,,,,,,30.78,61.4,1.68,239.34,,0.0,0.0,1004.95,
2024-06-30,6.22,26.15,0.6,,0.21,2.62,7.16,0.08,13.68,,,,,,,31.15,62.14,1.54,236.67,,0.0,0.0,1005.64,
2024-07-01,5.89,27.6,0.67,,0.27,2.62,7.2,0.08,13.79,,,,,,,31.44,62.71,1.53,241.29,,0.0,0.0,1005.48,
2024-07-02,7.4,30.67,0.67,,0.26,2.63,7.25,0.09,13.7,,,,,,,31.48,62.78,1.34,248.89,,0.0,0.0,1004.48,
2024-07-03,7.77,28.1,0.79,,0.35,2.65,7.27,0.08,13.68,,,,,,,32.93,65.65,1.47,227.76,,0.0,0.0,1004.69,
2024-07-04,9.43,34.07,1.14,,0.66,2.63,7.43,0.07,13.63,,,,,,,32.94,65.68,1.26,225.87,,0.0,0.0,1005.17,
2024-07-05,7.17,35.15,1.04,,0.56,2.66,7.29,0.12,13.76,,,,,,,33.71,67.2,1.47,251.66,,0.0,0.0,1004.37,
2024-07-06,9.9,31.83,0.96,,0.48,2.64,7.17,0.17,13.78,,,,,,,34.26,68.32,1.18,231.48,,0.0,0.0,1002.43,
2024-07-07,,21.8,,,,2.73,8.51,0.06,13.7,,,,,,,35.68,71.11,1.5,225.1,,0.0,0.0,1004.07,
2024-07-08,8.7,46.09,0.23,,0.01,2.63,8.53,0.07,13.74,,,,,,,33.7,67.2,1.29,238.72,,0.0,0.0,1002.95,
2024-07-09,7.65,31.94,2.83,,2.4,2.62,11.54,0.09,13.61,,,,,,,31.85,63.51,1.51,244.52,,0.0,0.0,1004.09,
2024-07-10,,27.79,25.92,0.2,21.1,2.6,120.12,0.08,13.64,,,,,,,29.37,58.61,1.6,255.21,,0.0,0.0,1006.85,
2024-07-11,,38.64,9.49,0.28,7.6,2.54,4.62,0.17,13.66,,,,,,,30.32,60.5,1.2,234.2,,0.0,0.0,1006.58,
2024-07-12,,32.12,6.08,,4.72,2.64,6.45,0.15,13.65,,,,,,,30.94,61.72,1.71,250.85,,0.0,0.0,1004.34,
2024-07-13,,20.57,4.2,,3.18,2.61,6.55,0.09,13.67,,,,,,,31.3,62.43,1.88,255.79,,0.0,0.0,1003.96,
2024-07-14,,21.51,3.06,,2.23,2.63,6.83,0.07,13.54,,,,,,,28.66,57.2,1.47,264.17,,0.0,0.0,1003.28,
2024-07-15,,18.37,2.1,,1.43,2.64,6.88,0.07,13.69,,,,,,,31.15,62.12,2.08,247.37,,0.0,0.0,1003.09,
2024-07-16,,20.78,1.42,,0.9,2.61,7.25,0.05,13.66,,,,,,,30.29,60.41,2.02,255.51,,0.0,0.0,1003.29,
2024-07-17,,18.95,1.03,,0.54,2.64,7.31,0.08,13.6,,,,,,,31.21,62.25,2.1,246.68,,0.0,0.0,1003.97,
2024-07-18,,27.1,0.91,,0.45,2.62,7.01,0.07,13.73,,,,,,,31.1,62.03,1.96,253.28,,0.0,0.0,1004.07,
2024-07-19,21.0,43.52,0.74,,0.3,2.64,7.12,0.07,13.64,,,,,,,31.92,63.67,2.4,258.88,,0.0,0.0,1003.02,
2024-07-20,,36.39,0.73,,0.3,2.62,6.95,0.11,13.68,,,,,,,31.39,62.61,2.01,246.11,,0.0,0.0,1003.16,
2024-07-21,,25.66,0.46,,0.1,2.62,6.78,0.2,13.82,,,,,,,27.93,55.73,1.57,264.38,,0.0,0.0,1003.83,
2024-07-22,,33.62,0.56,,0.18,2.63,6.85,0.09,13.68,,,,,,,33.38,66.56,1.99,246.43,,0.0,0.0,1005.93,
2024-07-23,,22.47,0.43,,0.17,2.63,6.92,0.09,13.72,,,,,,,31.05,61.93,1.5,240.89,,0.0,0.0,1006.48,
2024-07-24,,32.1,0.45,,0.19,2.63,6.83,0.11,13.6,,,,,,,30.97,61.77,1.44,239.41,,0.0,0.0,1004.76,
2024-07-25,,23.09,0.52,,0.17,2.64,6.68,0.09,13.6,,,,,,,31.29,62.39,1.79,251.92,,0.0,0.0,1003.44,
2024-07-26,,25.97,0.42,,0.22,2.62,6.75,0.09,13.67,,,,,,,32.69,65.19,1.81,253.7,,0.0,0.0,1003.02,
2024-07-27,,45.4,0.38,,0.18,2.62,7.17,0.14,13.67,,,,,,,32.92,65.63,1.31,234.82,,0.0,0.0,1003.2,
2024-07-28,,26.06,0.35,,0.07,2.64,6.89,0.12,13.57,,,,,,,32.64,65.11,1.88,253.68,,0.0,0.0,1002.56,
2024-07-29,,31.36,0.86,,0.41,2.61,6.79,0.18,13.68,,,,,,,33.5,66.8,1.94,235.99,,0.0,0.0,1001.76,
2024-07-30,,26.49,0.59,,0.22,2.63,6.71,0.11,13.6,,,,,,,32.38,64.58,1.59,238.52,,0.0,0.0,1004.24,
2024-07-31,,25.97,0.45,,0.26,2.64,6.81,0.1,13.61,,,,,,,30.66,61.16,1.74,245.3,,0.0,0.0,1005.85,
2024-08-01,17.68,27.58,1.09,,0.6,2.63,6.6,0.08,13.61,,,,,,,33.29,66.4,1.53,224.46,,0.0,0.0,1004.69,
2024-08-02,10.31,28.83,1.1,,0.62,2.63,6.41,0.08,13.65,,,,,,,32.09,64.01,1.57,243.39,,0.0,0.0,1005.02,
2024-08-03,14.76,41.76,1.27,,0.75,2.62,6.22,0.09,13.64,,,,,,,33.64,67.08,1.06,214.75,,0.0,0.0,1006.37,
2024-08-04,,32.31,0.64,,0.23,2.63,6.41,0.08,13.69,,,,,,,31.7,63.23,1.15,230.77,,0.0,0.0,1006.4,
2024-08-05,20.26,27.01,0.7,,0.35,2.64,6.45,0.08,13.64,,,,,,,30.9,61.63,1.2,239.79,,0.0,0.0,1006.46,
2024-08-06,15.07,32.21,0.91,,0.45,2.64,6.61,0.07,13.61,,,,,,,30.45,60.74,1.19,247.1,,0.0,0.0,1005.35,
2024-08-07,12.75,27.75,0.82,,0.39,2.63,6.49,0.07,13.71,,,,,,,29.48,58.81,1.17,256.4,,0.0,0.0,1005.82,
2024-08-08,13.87,22.59,0.95,,0.48,2.62,6.9,0.08,13.78,,,,,,,30.29,60.39,1.21,252.03,,0.0,0.0,1006.29,
2024-08-09,16.91,26.4,0.69,,0.27,2.63,6.42,0.1,13.69,,,,,,,31.87,63.56,1.38,241.09,,0.0,30.93,1006.37,
2024-08-10,16.34,31.02,0.56,,0.26,2.63,6.64,0.08,13.64,,,,,,,30.22,60.27,1.26,260.93,,0.0,3.94,1006.23,
2024-08-11,16.36,28.52,0.52,,0.16,2.65,6.43,0.09,13.72,,,,,,,31.34,62.5,1.35,231.79,,0.0,0.0,1004.03,
2024-08-12,12.25,24.7,0.26,,0.08,2.63,6.87,0.08,13.66,,,,,,,31.06,61.95,1.21,240.98,,0.0,0.71,1003.58,
2024-08-13,17.81,34.71,0.33,4.25,0.13,2.62,6.86,0.08,13.63,,,,,,,30.93,61.69,1.03,235.83,,0.0,0.06,1004.01,
2024-08-14,11.96,17.47,0.35,4.48,0.15,2.63,7.04,0.09,13.71,,,,,,,30.5,60.85,1.29,250.71,,0.0,1.43,1003.52,
2024-08-15,11.24,17.9,0.7,4.47,0.35,2.63,6.43,0.07,13.62,,,,,,,30.94,61.72,1.55,248.78,,0.0,0.0,1002.72,
2024-08-16,11.48,23.79,1.14,4.31,0.64,2.63,8.6,0.09,13.69,,,,,,,31.56,62.93,1.07,227.27,,0.0,0.0,1001.92,
2024-08-17,10.14,20.49,1.41,1.35,0.86,2.65,10.26,0.1,13.82,,,,,,,31.44,62.69,1.3,251.15,,0.0,4.79,1002.84,
2024-08-18,,27.32,0.13,1.45,,2.61,6.97,0.1,13.78,,,,,,,33.47,66.72,0.9,196.43,,0.0,0.0,1004.09,
2024-08-19,11.0,1.64,0.15,1.49,0.0,2.6,7.24,0.07,13.57,,,,,,,30.82,61.48,1.43,241.59,,0.0,0.0,1003.81,
2024-08-20,,10.07,0.21,1.47,0.03,2.64,6.61,0.08,13.7,,,,,,,29.63,59.1,1.56,247.24,,0.0,0.0,1004.37,
2024-08-21,9.13,11.91,0.15,1.49,,2.62,6.43,0.08,13.63,,,,,,,29.93,59.71,2.15,235.19,,0.0,0.0,1005.7,
2024-08-22,8.37,9.42,0.28,1.45,0.2,2.63,6.29,0.07,13.72,,,,,,,32.05,63.9,1.38,225.4,,0.0,0.0,1006.6,
2024-08-23,7.39,13.91,0.19,1.46,0.03,2.63,6.53,0.07,13.59,,,,,,,30.57,60.95,1.88,238.77,,0.0,0.0,1007.74,
2024-08-24,,12.72,2.11,1.45,0.01,2.63,6.36,0.08,13.7,,,,,,,30.21,60.26,2.14,235.45,,0.0,0.0,1008.16,
2024-08-25,,21.31,1.85,1.42,,2.63,6.55,0.11,13.73,,,,,,,30.91,61.63,1.71,245.2,,0.0,0.0,1007.53,
2024-08-26,,28.31,2.16,1.44,0.0,2.62,6.71,,13.82,,,,,,,33.35,66.48,2.17,221.06,,0.0,0.0,1006.62,
2024-08-27,,26.09,2.5,1.46,0.18,2.64,6.39,0.09,13.73,,,,,,,31.22,62.27,1.95,245.36,,0.0,0.0,1007.43,
2024-08-28,,25.56,2.2,1.45,0.05,2.63,6.41,0.08,13.69,,,,,,,30.28,60.4,1.47,249.58,,0.0,0.0,1007.29,
2024-08-29,,15.76,2.39,1.43,0.13,2.65,6.26,0.07,13.71,,,,,,,31.36,62.56,1.99,248.31,,0.0,0.0,1005.78,
2024-08-30,,16.08,2.22,1.45,0.04,2.63,6.07,0.07,13.76,,,,,,,29.25,58.37,1.77,255.37,,0.0,0.0,1005.78,
2024-08-31,985.0,25.84,2.1,1.46,0.25,2.64,6.71,0.07,13.77,,,,,,,30.45,60.75,1.59,243.66,,0.0,0.0,1005.46,
2024-09-01,,24.32,4.96,1.55,6.13,2.64,12.75,0.1,13.62,,,,,,,30.19,60.23,1.38,245.85,,0.0,0.0,1004.28,
2024-09-02,,22.01,2.66,1.47,0.25,2.62,6.24,0.08,13.7,,,,,,,31.07,61.98,1.42,252.11,,0.0,0.0,1004.55,
2024-09-03,,23.29,2.76,1.44,0.46,2.61,6.78,0.07,13.76,,,,,,,31.81,63.46,1.83,232.77,,0.0,0.0,1005.04,
2024-09-04,,35.18,2.36,1.47,0.21,2.63,6.92,0.06,13.74,,,,,,,33.52,66.81,1.33,229.87,,0.0,0.0,1006.03,
2024-09-05,,38.76,2.75,1.49,0.43,2.61,7.27,0.07,13.77,,,,,,,33.1,66.01,1.49,242.49,,0.0,0.0,1004.14,
2024-09-06,,36.62,2.49,1.47,0.2,2.63,6.56,0.07,13.67,,,,,,,31.42,62.67,1.35,243.48,,0.0,0.0,1004.75,
2024-09-07,,43.38,2.44,1.44,0.08,2.65,6.34,0.08,13.61,,,,,,,30.84,61.52,1.71,256.49,,0.0,0.0,1005.37,
2024-09-08,,29.34,2.27,1.45,0.03,2.64,6.51,0.07,13.71,,,,,,,31.4,62.61,1.6,242.48,,0.0,0.0,1006.35,
2024-09-09,,21.83,2.43,1.92,0.33,2.62,6.61,0.07,13.66,,,,,,,31.25,62.32,2.13,238.65,,0.0,0.0,1004.95,
2024-09-10,,33.37,2.22,2.08,1.65,2.63,6.5,0.08,13.69,,,,,,,31.53,62.89,2.15,238.13,,0.0,0.0,1004.81,
2024-09-11,,29.29,1.55,1.49,2.47,2.62,6.16,0.07,13.64,,,,,,,31.27,62.37,2.15,235.31,,0.0,0.0,1006.03,
2024-09-12,,29.87,1.43,1.52,2.22,2.63,7.1,0.08,13.74,,,,,,,31.96,63.75,1.52,242.08,,0.0,0.0,1006.46,
2024-09-13,,36.92,1.74,1.47,2.91,2.64,7.27,0.07,13.82,,,,,,,31.98,63.78,1.37,238.69,,0.0,0.0,1005.88,
2024-09-14,,35.91,1.64,1.5,2.71,2.62,6.3,0.07,13.69,,,,,,,31.8,63.43,1.38,243.03,,0.0,0.0,1005.33,
2024-09-15,,31.99,1.74,1.5,2.96,2.62,6.76,0.08,13.71,,,,,,,31.94,63.72,1.4,239.5,,0.0,0.0,1005.2,
2024-09-16,,37.62,2.06,1.53,3.79,2.62,7.06,0.08,13.74,,,,,,,32.15,64.13,1.34,235.66,,0.0,0.0,1005.43,
2024-09-17,,39.35,1.81,1.52,3.15,2.62,6.21,0.08,13.65,,,,,,,31.91,63.64,1.47,245.39,,0.0,0.0,1005.01,
2024-09-18,,42.14,1.52,1.49,2.4,2.63,7.35,0.08,13.67,,,,,,,31.58,62.99,1.44,245.29,,0.0,0.0,1003.92,
2024-09-19,,39.69,1.76,1.5,3.01,2.62,6.32,0.08,13.68,,,,,,,31.59,63.01,1.59,245.71,,0.0,0.0,1004.29,
2024-09-20,18.34,33.66,1.95,1.48,3.44,2.63,6.9,0.1,13.66,,,,,,,30.98,61.79,1.5,243.7,,0.0,0.0,1004.29,
2024-09-21,19.16,40.41,1.85,1.48,3.21,2.63,6.51,0.08,13.64,,,,,,,31.32,62.47,1.31,242.58,,0.0,0.0,1004.43,
2024-09-22,16.63,33.86,1.94,1.51,3.46,2.62,7.19,0.08,13.66,,,,,,,31.56,62.95,1.67,244.51,,0.0,0.0,1003.73,
2024-09-23,13.14,25.35,2.04,1.51,3.69,2.63,7.08,0.08,13.75,,,,,,,31.43,62.68,1.46,236.72,,0.0,0.0,1003.38,
2024-09-24,13.01,24.86,2.72,1.52,5.37,2.62,7.55,0.08,13.61,,,,,,,31.81,63.43,1.37,236.41,,0.0,0.0,1003.07,
2024-09-25,13.1,25.38,2.2,1.52,4.1,2.63,9.33,0.08,13.64,,,,,,,31.19,62.2,1.52,235.87,,0.0,0.0,1003.11,
2024-09-26,13.93,28.6,2.15,1.51,3.95,2.62,8.65,0.08,13.77,,,,,,,30.46,60.76,1.28,247.95,,0.0,0.0,1003.96,
2024-09-27,18.14,36.32,2.05,1.5,3.71,2.6,7.91,0.09,13.7,,,,,,,31.63,63.09,1.26,229.62,,0.0,0.02,1006.15,
2024-09-28,21.18,45.45,1.46,1.52,2.29,2.62,7.01,0.11,13.74,,,,,,,31.69,63.21,0.91,221.5,,0.0,0.0,1006.65,
2024-09-29,13.88,27.19,4.95,1.55,10.85,2.61,15.73,0.09,13.54,,,,,,,30.17,60.19,0.98,221.61,,0.0,0.9,1007.99,
2024-09-30,12.59,23.81,3.08,1.54,5.85,2.63,6.89,0.09,13.73,,,,,,,28.8,57.47,1.14,258.87,,0.0,4.46,1007.98,
2024-10-01,10.44,18.62,1.89,1.5,2.74,2.64,7.66,0.16,13.7,,,,,,,30.93,61.68,1.16,257.31,,0.0,3.34,1006.64,
2024-10-02,7.8,11.99,1.29,1.51,1.89,2.61,7.98,0.13,13.67,,,,,,,30.17,60.19,1.7,243.06,,0.0,2.01,1007.66,
2024-10-03,9.13,14.1,1.24,1.49,1.71,2.63,8.12,0.18,13.72,,,,,,,30.3,60.44,1.96,240.03,,0.0,0.0,1007.5,
2024-10-04,10.82,14.54,1.27,1.49,2.25,2.62,7.69,0.1,13.68,,,,,,,31.17,62.17,2.13,237.0,,0.0,0.0,1006.77,
2024-10-05,14.39,25.88,1.59,1.5,3.81,2.62,10.34,0.13,12.19,,,,,,,29.8,59.44,1.05,253.41,,0.0,0.0,1007.4,
2024-10-06,13.3,25.99,0.83,1.45,1.22,2.62,7.97,0.16,9.52,,,,,,,28.69,57.26,1.11,271.73,,0.0,2.32,1007.27,
2024-10-07,15.81,32.03,1.62,1.48,3.8,2.64,11.65,0.14,11.5,,,,,,,29.69,59.22,1.06,261.2,,0.0,1.93,1008.1,
2024-10-08,12.52,24.36,1.09,1.48,2.32,2.62,9.08,0.09,13.72,,,,,,,29.52,58.9,1.18,255.37,,0.0,0.0,1008.73,
2024-10-09,7.93,13.25,1.14,1.49,2.48,2.62,9.07,0.09,13.75,,,,,,,27.87,55.61,1.24,263.31,,0.0,22.07,1007.21,
2024-10-10,12.57,23.91,1.51,1.51,3.41,2.63,11.41,0.1,13.72,,,,,,,28.0,55.87,1.34,263.96,,0.0,32.98,1005.72,
2024-10-11,8.86,14.65,1.02,1.48,2.18,2.62,9.61,0.08,13.7,,,,,,,27.79,55.47,1.11,269.74,,0.0,8.26,1005.61,
2024-10-12,10.55,19.08,1.05,1.5,2.26,2.63,8.59,0.08,13.7,,,,,,,28.6,57.05,1.24,263.19,,0.0,20.63,1006.2,
2024-10-13,7.79,11.95,0.79,1.51,1.65,2.61,8.11,0.12,13.69,,,,,,,27.03,53.94,1.15,260.65,,0.0,29.32,1006.78,
2024-10-14,7.46,11.15,1.99,1.49,4.53,2.63,11.29,0.13,12.21,,,,,,,26.45,52.78,1.36,272.22,,0.0,23.43,1006.75,
2024-10-15,11.26,30.24,8.1,2.87,21.47,2.68,10.61,0.1,10.28,,,,,,,28.34,56.54,1.33,268.28,,0.0,41.43,1006.53,
2024-10-16,15.58,30.2,4.02,2.53,6.93,3.61,8.93,0.07,11.47,,,,,,,29.19,58.24,2.08,236.7,,0.0,0.0,1002.93,
2024-10-17,13.44,26.12,4.61,2.73,7.33,2.52,11.55,0.13,10.27,,,,,,,29.61,59.07,1.3,258.09,,0.0,3.44,1005.61,
2024-10-18,12.13,22.83,3.66,2.71,6.37,2.51,9.51,0.1,10.3,,,,,,,29.9,59.63,1.45,252.7,,0.0,10.13,1006.17,
2024-10-19,12.39,23.4,3.73,2.72,6.44,2.52,12.52,0.09,10.24,,,,,,,28.62,57.11,1.3,257.89,,0.0,0.0,1007.39,
2024-10-20,15.09,30.22,3.03,2.72,5.76,2.48,8.89,0.1,10.29,,,,,,,29.38,58.62,1.11,257.74,,0.0,8.83,1008.0,
2024-10-21,19.0,40.0,2.95,2.65,5.6,2.56,8.88,0.1,10.33,,,,,,,27.57,55.0,0.83,279.77,,0.0,,1008.95,
